Aktueller Finger,timestamp_ms,sensor_0,sensor_1,sensor_2,sensor_3
0,1923073,-17.213171005249023,10.485519409179688,-6.869018077850342,22.9031982421875
0,1923075,-19.99294090270996,-11.966558456420898,2.2039551734924316,63.06867218017578
0,1923077,6.617279529571533,-16.635122299194336,0.3358512222766876,-14.579465866088867
0,1923079,16.854652404785156,21.640689849853516,7.740670680999756,-46.87039566040039
0,1923081,18.437231063842773,-1.5370837450027466,13.695817947387695,6.197885990142822
0,1923083,-0.551817774772644,-12.020304679870605,3.872635841369629,27.257749557495117
0,1923085,-30.870513916015625,19.285463333129883,-12.545018196105957,-5.349799633026123
0,1923087,-3.776822090148926,14.019083023071289,0.059626031666994095,20.193954467773438
0,1923089,0.3529212176799774,-22.357284545898438,15.29172420501709,12.246040344238281
0,1923090,-6.098623752593994,-31.832181930541992,-11.842781066894531,-40.349769592285156
0,1923102,23.66674041748047,16.841026306152344,-21.520795822143555,-18.7919979095459
0,1923102,-0.8964493870735168,29.927162170410156,-1.9239888191223145,-0.6774929761886597
0,1923102,-19.771778106689453,-11.570908546447754,4.5517191886901855,28.93937110900879
0,1923103,13.550188064575195,-15.299222946166992,3.33011794090271,7.620256423950195
0,1923103,22.483699798583984,11.59765625,9.691157341003418,-30.751739501953125
0,1923103,-4.893240928649902,6.844482898712158,-3.086477041244507,2.07185697555542
0,1923104,-23.85521697998047,1.4530771970748901,-28.97806739807129,7.454358100891113
0,1923107,12.990701675415039,15.00475025177002,15.474517822265625,-3.89469838142395
0,1923108,15.280866622924805,-2.406430244445801,47.19871139526367,23.28182029724121
0,1923111,-23.482013702392578,-12.642334938049316,-26.14662742614746,-1.80966055393219
0,1923112,-12.521028518676758,-17.158267974853516,-29.822734832763672,-36.38816833496094
0,1923115,11.994279861450195,8.501505851745605,24.065298080444336,4.641726493835449
0,1923116,4.322224140167236,15.719500541687012,-1.3421698808670044,18.994709014892578
0,1923119,-16.989070892333984,-31.02684783935547,-16.80038070678711,3.314883232116699
0,1923120,17.363611221313477,-1.1140673160552979,-1.5379180908203125,12.234366416931152
0,1923123,15.665230751037598,8.25123119354248,0.8574385643005371,-9.342131614685059
0,1923124,-14.48513412475586,-13.923795700073242,29.020597457885742,-37.2823486328125
0,1923127,7.666757583618164,17.36637306213379,3.758408308029175,16.730684280395508
0,1923153,-9.740029335021973,7.678369998931885,-20.247394561767578,19.263303756713867
0,1923153,-3.7529451847076416,3.5371079444885254,15.243518829345703,-38.5277099609375
0,1923153,9.698437690734863,-0.37704962491989136,-16.3503360748291,1.1332035064697266
0,1923153,-9.923385620117188,-18.580459594726562,-13.0948486328125,44.3940315246582
0,1923154,7.825572967529297,3.9843034744262695,41.610652923583984,11.907368659973145
0,1923154,0.39657071232795715,7.757137298583984,7.863833427429199,-29.158172607421875
0,1923154,-12.583484649658203,-10.054147720336914,-30.983848571777344,-6.115439414978027
0,1923154,2.283451557159424,1.4095581769943237,1.2860362529754639,22.613807678222656
0,1923154,4.4801554679870605,23.67226791381836,6.592920780181885,-7.499715328216553
0,1923154,5.7846198081970215,-12.203853607177734,-15.540542602539062,-17.630294799804688
0,1923155,-1.604792594909668,-15.4241361618042,-1.6791807413101196,17.77423858642578
0,1923155,6.977128982543945,23.217342376708984,-2.1271772384643555,11.77425765991211
0,1923155,5.172428131103516,1.0874435901641846,-7.833720684051514,-20.640201568603516
0,1923156,-10.13815689086914,-1.603989601135254,15.827269554138184,5.92540979385376
0,1923156,10.388813972473145,12.282401084899902,8.518919944763184,-2.6697137355804443
0,1923159,5.10079288482666,-10.696166038513184,-16.630657196044922,-24.884979248046875
0,1923160,-20.304386138916016,4.147633075714111,-3.6056790351867676,10.247943878173828
0,1923163,-15.375746726989746,-7.311246871948242,31.85243034362793,7.788432598114014
0,1923164,3.329525947570801,-29.811843872070312,0.42401859164237976,0.026734448969364166
0,1923167,2.9841623306274414,28.794483184814453,-33.516998291015625,-4.415894985198975
0,1923168,10.026491165161133,9.773025512695312,17.052671432495117,6.3195013999938965
0,1923171,8.675829887390137,-28.2508544921875,1.4285423755645752,12.4803466796875
0,1923172,-1.307453989982605,13.721562385559082,-12.38449478149414,-17.0323486328125
0,1923175,6.405849933624268,-6.357611656188965,9.491667747497559,15.787652015686035
0,1923176,-21.556821823120117,-20.53323745727539,-8.743084907531738,18.736101150512695
0,1923179,-13.025344848632812,25.964523315429688,-6.031651973724365,-28.580659866333008
0,1923217,28.04210090637207,14.52094841003418,1.3318358659744263,-21.904090881347656
0,1923217,11.788891792297363,-22.84762191772461,7.884315490722656,32.905277252197266
0,1923217,-9.100676536560059,7.675493240356445,10.74258041381836,22.271686553955078
0,1923217,5.371384143829346,13.291772842407227,0.02010214701294899,-25.729455947875977
0,1923218,-12.674399375915527,-12.02452278137207,-5.48966121673584,-2.586430549621582
0,1923218,-33.527889251708984,-0.6270277500152588,5.51953649520874,8.147866249084473
0,1923218,26.562889099121094,4.287820339202881,10.18272590637207,-3.4086062908172607
0,1923218,27.92841339111328,-4.275402069091797,4.5982842445373535,4.498678684234619
0,1923218,-26.911903381347656,-10.182275772094727,-15.033612251281738,-7.9077043533325195
0,1923218,-8.511157989501953,-0.2328965663909912,-23.361623764038086,-9.580777168273926
0,1923219,8.857512474060059,-1.146377682685852,11.204289436340332,19.4566650390625
0,1923219,1.313208818435669,14.314263343811035,14.471064567565918,-14.991535186767578
0,1923219,7.230140209197998,4.733946800231934,-14.604170799255371,-35.322227478027344
0,1923219,1.5422947406768799,-12.412805557250977,-9.23816204071045,6.5159592628479
0,1923219,-1.733953595161438,9.47509479522705,6.050243377685547,18.691469192504883
0,1923219,-9.280774116516113,-0.9212008714675903,16.56155776977539,9.238268852233887
0,1923220,-7.985958099365234,-1.8074005842208862,1.5230937004089355,0.7567136287689209
0,1923220,20.901206970214844,-2.1044769287109375,-12.1879301071167,-3.203768253326416
0,1923220,-1.7041105031967163,1.0563044548034668,16.30417823791504,-7.216991901397705
0,1923221,-7.5736260414123535,8.72471809387207,1.9321882724761963,4.422045707702637
0,1923222,-7.193168640136719,-20.110572814941406,-24.3815860748291,25.236783981323242
0,1923223,-9.89236831665039,3.956524133682251,6.1018967628479,1.007795810699463
0,1923224,28.320072174072266,19.337926864624023,19.15958023071289,-31.599489212036133
0,1923227,-15.51184368133545,-26.972820281982422,-6.793866157531738,3.002035617828369
0,1923228,-10.725455284118652,-3.4699807167053223,-12.405245780944824,10.259391784667969
0,1923231,34.270103454589844,24.755901336669922,6.570789813995361,-2.309248447418213
0,1923232,-15.081433296203613,0.8247374296188354,5.620552062988281,-3.3432769775390625
0,1923235,-11.730594635009766,-8.742902755737305,-3.539550304412842,-17.30744171142578
0,1923236,9.962693214416504,-4.89031982421875,-6.319390773773193,10.861144065856934
0,1923239,-6.6223978996276855,-1.265384554862976,-0.18711337447166443,9.567256927490234
0,1923240,16.412689208984375,-2.633474826812744,1.2036654949188232,-3.700045347213745
0,1923243,1.7172893285751343,-2.4753506183624268,-11.06982135772705,18.389347076416016
0,1923244,-16.51836395263672,22.450876235961914,-0.7166464924812317,-0.04391894116997719
0,1923247,10.03593635559082,20.995046615600586,10.908321380615234,-27.213281631469727
0,1923248,-3.1685094833374023,-22.76860809326172,7.726833820343018,12.730781555175781
0,1923299,2.520016670227051,-12.363398551940918,0.5849834680557251,12.253568649291992
0,1923299,8.43874454498291,6.922438621520996,-13.069640159606934,-13.659513473510742
0,1923299,-19.73926544189453,-7.432143688201904,16.438838958740234,6.784633636474609
0,1923299,-4.953530788421631,2.1135780811309814,24.395334243774414,-3.7464072704315186
0,1923299,19.374069213867188,13.932503700256348,-21.894363403320312,-4.939943790435791
0,1923300,-9.229801177978516,-8.634883880615234,-14.927165031433105,8.341050148010254
0,1923300,-17.32430076599121,-18.126874923706055,9.9847993850708,8.73540210723877
0,1923300,19.58474349975586,3.3473331928253174,-9.084640502929688,-7.578639030456543
0,1923300,3.9749081134796143,11.61026668548584,-5.9385857582092285,-10.140958786010742
0,1923300,-4.257420063018799,0.1374567151069641,18.169342041015625,9.205504417419434
0,1923301,9.402969360351562,-15.529683113098145,-13.229767799377441,-3.3185298442840576
0,1923301,-16.470129013061523,2.1332361698150635,-13.048921585083008,-5.252468109130859
0,1923301,5.747251987457275,12.88448429107666,5.321402072906494,-15.893709182739258
0,1923301,5.470757484436035,-7.13346529006958,-0.9464240074157715,-7.218402862548828
0,1923301,-13.832286834716797,11.703280448913574,10.589629173278809,12.012506484985352
0,1923301,23.9127140045166,11.417115211486816,2.343580722808838,-12.817211151123047
0,1923302,-4.2253336906433105,-24.019832611083984,-3.175471067428589,-2.281672477722168
0,1923302,-30.405363082885742,6.002643585205078,7.4582648277282715,12.691812515258789
0,1923302,13.147378921508789,8.925511360168457,3.195704221725464,10.498785018920898
0,1923302,13.162415504455566,-25.44914436340332,-16.67897605895996,16.21150779724121
0,1923302,-8.428597450256348,13.259180068969727,2.8405940532684326,-9.473828315734863
0,1923302,1.6174108982086182,22.40800666809082,21.039167404174805,-6.768498420715332
0,1923303,4.025393962860107,-11.529653549194336,-16.403615951538086,30.902183532714844
0,1923303,-8.206164360046387,-7.60182523727417,-11.086544036865234,9.924745559692383
0,1923303,-6.872091293334961,4.289921283721924,16.051076889038086,-23.77463722229004
0,1923304,5.270261287689209,2.3725669384002686,13.57988166809082,-12.208645820617676
0,1923304,-0.3902902603149414,10.141358375549316,-6.6158127784729,17.57345199584961
0,1923305,3.6436009407043457,-2.4074535369873047,-15.87069320678711,7.361982345581055
0,1923307,7.882440090179443,-19.950822830200195,13.940674781799316,-11.69846248626709
0,1923309,-4.87063455581665,-1.7660856246948242,6.174922943115234,8.944801330566406
0,1923311,-16.120309829711914,13.906037330627441,-21.186147689819336,3.499793291091919
0,1923313,15.692561149597168,-6.897058486938477,-4.886144161224365,-17.507658004760742
0,1923315,27.22081184387207,-18.84688949584961,-4.205080986022949,2.5642879009246826
0,1923317,-32.53123474121094,8.226621627807617,7.073936462402344,20.459806442260742
0,1923319,-6.935546875,26.99869728088379,25.835811614990234,-23.966299057006836
0,1923321,26.70124626159668,-6.0133209228515625,-13.678764343261719,-25.219112396240234
0,1923323,-20.47035026550293,-22.63008689880371,-4.261345863342285,20.499019622802734
0,1923325,-4.061516284942627,19.514673233032227,-0.01958107203245163,-12.292634963989258
0,1923328,11.748358726501465,8.888998031616211,-15.274057388305664,-33.35679244995117
0,1923329,-8.173589706420898,-8.394795417785645,32.24610900878906,30.471662521362305
0,1923330,12.321578979492188,9.939709663391113,10.586040496826172,50.374969482421875
0,1923333,-10.845362663269043,-15.288620948791504,-41.02952575683594,-26.33542251586914
0,1923334,-16.79264259338379,-21.38041877746582,-7.896944999694824,-29.489046096801758
0,1923397,26.027029037475586,17.758159637451172,19.074928283691406,23.485742568969727
0,1923397,12.055312156677246,11.599203109741211,-9.120908737182617,-2.2912940979003906
0,1923398,-12.795393943786621,3.6041462421417236,-5.310673236846924,-9.680091857910156
0,1923398,2.061946153640747,4.870929718017578,9.498708724975586,24.136144638061523
0,1923398,-7.594349384307861,-23.674509048461914,-1.3531876802444458,5.873024940490723
0,1923398,-13.614581108093262,-7.112411975860596,11.537679672241211,-20.59528350830078
0,1923398,34.85607147216797,37.98509216308594,2.026449203491211,-20.226285934448242
0,1923398,0.5672146081924438,2.1702346801757812,-20.489511489868164,3.4911277294158936
0,1923399,-34.31481170654297,-21.836650848388672,13.000052452087402,6.287783622741699
0,1923399,19.70675277709961,5.774799823760986,21.901473999023438,-11.159930229187012
0,1923399,11.720873832702637,-15.466073036193848,-23.561630249023438,7.0259599685668945
0,1923399,-21.281478881835938,-3.75207781791687,-11.903410911560059,10.258977890014648
0,1923399,-11.07321834564209,4.2456865310668945,8.613944053649902,-0.9225077033042908
0,1923399,3.941939353942871,-13.956527709960938,-2.1239359378814697,-15.266646385192871
0,1923400,10.654332160949707,-6.2384209632873535,0.3147932291030884,-7.95119047164917
0,1923400,3.3486552238464355,-1.0889641046524048,12.3274507522583,35.15121078491211
0,1923400,-9.657790184020996,19.261432647705078,4.901250839233398,9.22728157043457
0,1923400,2.870847463607788,7.3808698654174805,-15.217215538024902,-36.77690505981445
0,1923400,5.334044456481934,-11.522717475891113,2.5918002128601074,-2.9236536026000977
0,1923400,-22.48102378845215,11.59878158569336,16.920381546020508,32.756961822509766
0,1923401,7.538290023803711,17.012025833129883,9.610222816467285,4.789340019226074
0,1923401,24.722553253173828,-5.227608680725098,-12.71756362915039,-28.180946350097656
0,1923401,-9.720890045166016,-12.348530769348145,-5.231605529785156,24.969940185546875
0,1923401,5.979127407073975,-0.8010740876197815,-0.37954777479171753,16.050830841064453
0,1923401,5.356263160705566,14.558995246887207,-11.847914695739746,-21.38791275024414
0,1923402,-17.430627822875977,5.453711986541748,5.488638401031494,32.96742248535156
0,1923402,3.356389284133911,-13.064400672912598,11.836321830749512,6.937463760375977
0,1923402,5.058290481567383,-16.267274856567383,3.737499952316284,-46.355926513671875
0,1923402,-8.667912483215332,-1.7864139080047607,-8.612594604492188,-4.504806995391846
0,1923402,6.388245105743408,9.844892501831055,2.176835536956787,28.556350708007812
0,1923402,2.588498830795288,-2.958751916885376,7.429621696472168,-10.385170936584473
0,1923404,-10.121964454650879,8.75993824005127,-5.733755111694336,-20.246530532836914
0,1923404,-5.852683067321777,7.367504119873047,-9.845321655273438,1.3354648351669312
0,1923404,-4.436572551727295,2.8170626163482666,-3.271432399749756,7.486689567565918
0,1923405,8.02025032043457,-8.991880416870117,0.5725919008255005,1.4198073148727417
0,1923407,9.872138977050781,-26.92355728149414,3.5516276359558105,-8.796808242797852
0,1923409,14.630229949951172,15.6990385055542,6.660994052886963,-14.862332344055176
0,1923411,-0.13415725529193878,17.56540298461914,-7.881152153015137,1.5911643505096436
0,1923413,-37.52754211425781,-4.827660083770752,-5.769802093505859,33.503997802734375
0,1923415,8.028489112854004,-6.452055931091309,4.218507766723633,-2.5463850498199463
0,1923417,25.58769416809082,-33.438987731933594,-0.15411999821662903,-20.003938674926758
0,1923419,10.04190444946289,16.44235610961914,4.130246162414551,8.523966789245605
0,1923422,-10.552168846130371,41.746490478515625,-0.7385965585708618,-12.639854431152344
0,1923423,-31.29735565185547,-24.101459503173828,-0.8911131620407104,-6.203134536743164
0,1923424,30.373512268066406,3.7516274452209473,19.077220916748047,16.139280319213867
0,1923427,-2.762305974960327,13.286480903625488,-4.687955379486084,2.6209518909454346
0,1923428,-35.540103912353516,-16.792802810668945,-24.132923126220703,-4.366576671600342
0,1923431,28.520893096923828,-10.73725700378418,0.786250650882721,0.6490724682807922
0,1923432,23.155527114868164,-11.032333374023438,11.253565788269043,21.525619506835938
0,1923506,-14.816532135009766,20.526302337646484,0.9032825827598572,-3.187352418899536
0,1923506,-18.648765563964844,14.620105743408203,-11.412654876708984,-13.790761947631836
0,1923507,-5.680324077606201,-29.508338928222656,18.370513916015625,10.678895950317383
0,1923507,2.226982831954956,-1.2500205039978027,23.215925216674805,-21.926841735839844
0,1923507,18.52506446838379,28.986530303955078,-29.78276824951172,-16.753721237182617
0,1923507,7.501456260681152,-16.852357864379883,-18.782154083251953,17.74847984313965
0,1923507,-15.838706970214844,-16.742450714111328,15.254688262939453,5.97754430770874
0,1923507,-2.7556354999542236,15.815400123596191,13.394342422485352,-1.7670706510543823
0,1923508,5.387348651885986,0.622143030166626,-4.905675411224365,-6.9489665031433105
0,1923508,-8.702614784240723,7.669167518615723,-47.58032989501953,-28.720840454101562
0,1923508,-10.130650520324707,9.814538955688477,3.092881202697754,24.27908706665039
0,1923508,19.523731231689453,-18.023967742919922,50.65940856933594,52.58550262451172
0,1923508,8.578489303588867,-1.020118236541748,8.565852165222168,-24.365528106689453
0,1923508,-7.472432613372803,23.437299728393555,-9.930459976196289,-17.072603225708008
0,1923509,7.066186904907227,-13.68847370147705,-27.567922592163086,44.49155807495117
0,1923509,-18.77762222290039,-15.283808708190918,16.645427703857422,9.607318878173828
0,1923509,-2.4034414291381836,12.6710844039917,15.406753540039062,-51.65906524658203
0,1923509,33.029624938964844,-12.39526081085205,-30.334341049194336,-7.5062408447265625
0,1923509,3.2686026096343994,-1.97456955909729,15.288307189941406,27.037843704223633
0,1923509,-14.33289623260498,23.38335418701172,10.758667945861816,-12.852387428283691
0,1923510,-10.969660758972168,7.456038475036621,-6.487674236297607,-5.351254940032959
0,1923510,-1.7877837419509888,-4.695964336395264,9.418057441711426,11.802990913391113
0,1923510,19.972332000732422,-14.067667961120605,1.4352166652679443,-24.306419372558594
0,1923510,-4.412484169006348,-10.763386726379395,-22.90336799621582,-12.381917953491211
0,1923510,-14.642499923706055,11.146383285522461,-16.329259872436523,23.776155471801758
0,1923510,5.160037517547607,2.89640212059021,17.646821975708008,1.308053970336914
0,1923511,-2.7022790908813477,-3.097357988357544,4.439715385437012,-63.218746185302734
0,1923511,51.62609100341797,17.185754776000977,5.176913261413574,-2.9741928577423096
0,1923511,-22.590900421142578,0.9023690819740295,6.186196804046631,104.73851013183594
0,1923511,-98.14102935791016,-7.779428005218506,-5.000802993774414,2.9487359523773193
0,1923511,43.312808990478516,5.355993747711182,10.095069885253906,-43.62705612182617
0,1923511,37.584808349609375,-14.850706100463867,-17.399927139282227,0.888880729675293
0,1923512,-42.83616638183594,-17.985931396484375,-23.394107818603516,8.240091323852539
0,1923512,8.980981826782227,16.88770866394043,32.50492477416992,22.89837074279785
0,1923512,88.29157257080078,28.784433364868164,22.679702758789062,-6.350924968719482
0,1923512,-25.62468910217285,-23.756845474243164,-32.737884521484375,-14.373149871826172
0,1923512,-150.6353759765625,-58.57956314086914,-2.853717088699341,-7.649202346801758
0,1923514,41.22366714477539,23.552350997924805,10.626450538635254,-5.164566993713379
0,1923514,120.85053253173828,49.113563537597656,-29.968406677246094,17.65073585510254
0,1923514,-25.580453872680664,-21.54834747314453,16.1923885345459,-11.28994083404541
0,1923515,-25.174196243286133,-2.4314658641815186,14.33127212524414,-31.424625396728516
0,1923517,14.83537483215332,20.442792892456055,-22.769487380981445,12.425541877746582
0,1923519,-15.117293357849121,-9.709020614624023,2.109099864959717,15.341673851013184
0,1923521,-16.343225479125977,-12.148886680603027,-4.5534210205078125,-14.217199325561523
0,1923523,15.746932029724121,20.198463439941406,15.792888641357422,4.2555365562438965
0,1923525,24.82066535949707,26.423446655273438,11.783735275268555,18.505130767822266
0,1923527,-28.260498046875,-17.924406051635742,-6.137113094329834,5.757442951202393
0,1923529,-8.542643547058105,-20.574583053588867,0.45517128705978394,3.2772772312164307
0,1923532,5.84784460067749,0.04599927365779877,1.8211041688919067,-14.536670684814453
0,1923533,-12.683085441589355,8.679803848266602,12.793399810791016,-7.273693084716797
0,1923534,24.297643661499023,0.4293821156024933,-7.355838775634766,0.6457276344299316
0,1923611,-1.519752860069275,-22.370025634765625,-0.2549762725830078,20.3582706451416
0,1923612,-5.726199150085449,-3.383150815963745,-11.888073921203613,29.097984313964844
0,1923612,5.339968204498291,4.0121893882751465,-11.033559799194336,-19.23263931274414
0,1923612,-13.36035442352295,-1.0030262470245361,18.92988395690918,-8.562200546264648
0,1923612,-4.466510772705078,6.4155097007751465,-6.861569881439209,7.01958703994751
0,1923612,21.348657608032227,2.083289861679077,1.218438744544983,-16.58916473388672
0,1923612,31.448566436767578,9.995440483093262,12.077617645263672,-18.174781799316406
0,1923613,-33.46809768676758,-15.332051277160645,-14.78722095489502,8.319097518920898
0,1923613,-44.88323211669922,-3.7426536083221436,10.074470520019531,6.197025299072266
0,1923613,39.40129089355469,27.329849243164062,16.231107711791992,-22.278718948364258
0,1923613,28.507444381713867,3.0930449962615967,-25.14457130432129,1.9931625127792358
0,1923613,-35.63668441772461,0.6099168658256531,-7.431116580963135,15.389249801635742
0,1923614,-4.401087760925293,-13.735420227050781,16.7902774810791,-2.373650312423706
0,1923614,30.63589859008789,3.8518474102020264,-8.465785026550293,-12.186273574829102
0,1923614,-14.665767669677734,-0.7963509559631348,8.607107162475586,7.737172603607178
0,1923614,-33.53743362426758,-14.688761711120605,18.485158920288086,37.964195251464844
0,1923614,20.476402282714844,27.23735809326172,-28.57968521118164,-10.956255912780762
0,1923614,37.705528259277344,2.4688119888305664,-15.072426795959473,-31.559873580932617
0,1923615,2.757748603820801,-30.547773361206055,-31.61435317993164,14.362580299377441
0,1923615,-20.034868240356445,-10.768733978271484,1.332197904586792,18.325807571411133
0,1923615,-4.442031383514404,27.300264358520508,100.7623062133789,-9.997721672058105
0,1923615,3.261817216873169,2.750506639480591,-5.1640801429748535,-34.16993713378906
0,1923615,-13.527144432067871,-31.9327449798584,-60.961944580078125,-7.180103302001953
0,1923615,0.6704087853431702,24.53099250793457,14.890280723571777,20.062236785888672
0,1923616,1.9029541015625,28.105775833129883,-2.116450548171997,2.929835796356201
0,1923616,-18.387208938598633,-44.83763122558594,-14.059288024902344,4.728862762451172
0,1923616,-5.093292713165283,-36.77810287475586,5.930724620819092,11.942931175231934
0,1923616,5.578817367553711,45.35230255126953,19.180383682250977,-13.784274101257324
0,1923616,10.624321937561035,27.830734252929688,3.4103291034698486,-25.535205841064453
0,1923616,11.939878463745117,-35.76490783691406,-29.984525680541992,1.714347243309021
0,1923617,-22.15656280517578,0.3911522924900055,-12.319780349731445,8.976452827453613
0,1923617,-11.683499336242676,22.036846160888672,12.659904479980469,-7.15899133682251
0,1923617,40.987064361572266,-3.5824532508850098,13.378411293029785,-3.977020740509033
0,1923617,16.008852005004883,-4.349002361297607,13.923891067504883,10.819233894348145
0,1923617,-32.56243896484375,-8.79002571105957,-22.042049407958984,-1.5319534540176392
0,1923617,-4.009617328643799,-6.3684492111206055,0.17362622916698456,1.0423407554626465
0,1923618,12.78242015838623,26.604896545410156,41.829654693603516,31.201704025268555
0,1923618,3.551203489303589,-1.722706913948059,-18.70869255065918,-15.82563591003418
0,1923619,-7.93972110748291,-24.92814826965332,-18.29190444946289,3.4741175174713135
0,1923619,-0.39579418301582336,-14.645559310913086,3.4710288047790527,57.569862365722656
0,1923619,24.114511489868164,-10.548535346984863,5.006790637969971,-17.624256134033203
0,1923620,-13.160329818725586,41.769378662109375,51.83940505981445,-5.106022834777832
0,1923621,-23.126480102539062,26.57515525817871,-36.9044189453125,34.47646713256836
0,1923622,-20.101720809936523,-14.362096786499023,-78.91726684570312,-22.67820930480957
0,1923625,2.059687852859497,-11.740796089172363,45.486480712890625,-36.768226623535156
0,1923626,73.95242309570312,6.128223419189453,24.17559242248535,2.560546636581421
0,1923629,-5.222413539886475,-6.1175947189331055,-16.523574829101562,-7.450106143951416
0,1923630,-60.76484298706055,-12.265512466430664,14.273558616638184,-26.43100357055664
0,1923633,32.34906768798828,28.494436264038086,-8.838464736938477,22.039291381835938
0,1923634,3.686462640762329,-0.880551278591156,-14.423054695129395,10.653684616088867
0,1923637,-29.30797004699707,-27.147499084472656,3.399510622024536,-3.739682912826538
0,1923638,17.19432258605957,0.8551991581916809,20.824975967407227,5.849797248840332
0,1923641,4.4462409019470215,13.673577308654785,16.85312843322754,-42.5812873840332
0,1923720,-160.3271942138672,-10.328241348266602,-13.893356323242188,15.940556526184082
0,1923720,-126.71537017822266,-6.943491458892822,-18.935754776000977,58.006160736083984
0,1923720,159.6706085205078,14.39902400970459,9.600101470947266,-25.760967254638672
0,1923720,98.46296691894531,-0.04636687785387039,-2.5449578762054443,-34.508934020996094
0,1923720,-40.93083953857422,-4.311883449554443,-9.86607551574707,10.430577278137207
0,1923721,15.84008502960205,7.134315490722656,24.304443359375,-9.986189842224121
0,1923721,50.22972106933594,3.0479416847229004,-12.623157501220703,-33.32769012451172
0,1923721,45.8104248046875,-19.297176361083984,-36.617679595947266,20.52773666381836
0,1923721,19.772085189819336,0.14096544682979584,13.836033821105957,35.402645111083984
0,1923721,11.078215599060059,18.977632522583008,24.91094207763672,-13.347198486328125
0,1923722,25.307294845581055,-6.10221004486084,-0.8739467859268188,-18.156965255737305
0,1923722,16.32823944091797,-0.21221570670604706,-6.738644599914551,26.717355728149414
0,1923722,-21.525714874267578,3.020939588546753,16.89141273498535,34.750389099121094
0,1923722,-23.269744873046875,-21.478300094604492,11.480878829956055,-3.910156726837158
0,1923722,-7.916304111480713,10.067148208618164,-16.84617042541504,-17.72812843322754
0,1923722,-21.140565872192383,16.962736129760742,-7.311187267303467,-6.050992488861084
0,1923723,-28.964740753173828,-22.72511100769043,17.33938980102539,5.367509365081787
0,1923723,-23.161224365234375,10.219207763671875,4.954289436340332,-9.753419876098633
0,1923723,24.955142974853516,23.214115142822266,-17.839937210083008,-25.856042861938477
0,1923723,37.72917175292969,-14.261423110961914,-3.002997875213623,-4.912376880645752
0,1923723,-8.133049011230469,-20.80063247680664,1.8950918912887573,7.92374324798584
0,1923723,3.7596139907836914,-4.607780933380127,-9.60820198059082,-5.264023303985596
0,1923724,-7.013720512390137,14.778918266296387,-4.396921634674072,14.12000846862793
0,1923724,-19.849252700805664,7.800006866455078,10.034294128417969,16.833715438842773
0,1923724,1.3258088827133179,-0.9263596534729004,-1.498780608177185,-25.899120330810547
0,1923724,-34.50040054321289,-2.4325644969940186,-13.702860832214355,-17.574108123779297
0,1923724,-40.68100357055664,-8.5781831741333,13.383180618286133,40.77288818359375
0,1923725,-1.049733281135559,7.734499931335449,14.040528297424316,36.090450286865234
0,1923725,33.429893493652344,-5.5416998863220215,-16.456758499145508,-26.207664489746094
0,1923725,23.027999877929688,-14.85844898223877,-12.883227348327637,-14.81244945526123
0,1923725,-24.803876876831055,5.283600807189941,13.930371284484863,10.844565391540527
0,1923725,15.637290000915527,13.04255199432373,29.68907928466797,-6.954222202301025
0,1923725,39.4681396484375,25.15455436706543,-9.394488334655762,-5.040626525878906
0,1923726,-24.582637786865234,-8.83913516998291,-20.341873168945312,4.885300636291504
0,1923726,-29.059831619262695,-15.298728942871094,5.159666061401367,12.88344669342041
0,1923726,11.908184051513672,7.988857269287109,-5.847653865814209,-17.70041847229004
0,1923726,12.032698631286621,-17.19424057006836,12.305757522583008,-9.625876426696777
0,1923726,-0.13051895797252655,5.525645732879639,4.944081783294678,32.369354248046875
0,1923726,-0.11948060989379883,25.12161636352539,-9.254161834716797,-1.9373494386672974
0,1923728,27.778656005859375,-22.799692153930664,2.558760166168213,-12.742758750915527
0,1923728,1.132797122001648,-22.627485275268555,-18.481489181518555,9.292563438415527
0,1923728,-40.62831115722656,22.336511611938477,-5.129379749298096,-5.81016731262207
0,1923728,16.51052474975586,8.166152000427246,26.480865478515625,0.17595934867858887
0,1923730,33.53359603881836,-12.08077621459961,-7.185722827911377,25.097209930419922
0,1923731,-20.05345344543457,-2.1543965339660645,-12.889742851257324,-13.874775886535645
0,1923732,-36.274288177490234,12.342305183410645,25.971221923828125,-20.35117530822754
0,1923735,-6.3132243156433105,14.226461410522461,-10.782957077026367,8.364395141601562
0,1923736,22.530344009399414,-15.990899085998535,-23.6043643951416,-22.004928588867188
0,1923739,-8.702024459838867,-6.587274074554443,14.094870567321777,-29.47983741760254
0,1923740,-52.180023193359375,25.311464309692383,11.249245643615723,-6.1242241859436035
0,1923743,-17.100994110107422,-23.611906051635742,0.9559696316719055,92.57026672363281
0,1923744,12.148184776306152,-40.988433837890625,-20.55607032775879,98.63385772705078
0,1923747,5.6200480461120605,54.06542205810547,6.993467807769775,-132.49098205566406
0,1923748,-27.227785110473633,18.57091522216797,11.692038536071777,-148.8953094482422
0,1923751,-33.04203414916992,-49.56050491333008,-0.38001540303230286,36.98294448852539
0,1923752,50.8870735168457,33.404823303222656,37.685325622558594,93.21564483642578
0,1923755,-10.08266544342041,1.7181247472763062,-56.05183792114258,89.8437728881836
0,1923756,-54.67353439331055,-46.721412658691406,-46.142391204833984,51.77806854248047
0,1923759,154.9185791015625,50.73676300048828,89.51304626464844,-61.314674377441406
0,1923760,100.0029525756836,2.2194089889526367,-0.28932666778564453,-173.16465759277344
0,1923850,-98.6599349975586,-44.342742919921875,-52.398075103759766,-2.048821449279785
0,1923850,-23.847620010375977,27.05252456665039,33.23258590698242,169.03897094726562
0,1923850,25.161056518554688,-2.0144174098968506,10.976263999938965,-3.670213460922241
0,1923851,6.039466381072998,-2.029613733291626,-16.410646438598633,-66.44493103027344
0,1923851,20.906572341918945,8.192394256591797,1.2768856287002563,6.307790279388428
0,1923851,-10.427824974060059,-12.667637825012207,0.23561519384384155,14.924947738647461
0,1923851,-31.56659698486328,6.372969150543213,4.180552005767822,10.412943840026855
0,1923851,-2.00587797164917,-5.411646842956543,3.9289422035217285,-25.16405487060547
0,1923851,-1.0645848512649536,-6.494560718536377,-3.745269775390625,-23.781431198120117
0,1923852,-10.999187469482422,7.532629489898682,-20.704877853393555,7.558286666870117
0,1923852,-11.510368347167969,2.3048529624938965,-2.6120121479034424,5.6367082595825195
0,1923852,6.9092559814453125,-7.3060150146484375,16.831689834594727,7.884564399719238
0,1923852,17.613834381103516,-2.461674928665161,-14.497114181518555,27.199134826660156
0,1923852,2.0112826824188232,20.986839294433594,-0.7941386699676514,-7.649046421051025
0,1923852,8.822128295898438,-0.35077622532844543,31.0029354095459,-29.79329490661621
0,1923853,6.562262058258057,-21.043331146240234,-17.725391387939453,12.106176376342773
0,1923853,-29.521520614624023,-13.01479434967041,-16.51197624206543,13.007991790771484
0,1923853,-24.373964309692383,22.75971794128418,25.049888610839844,-28.55280303955078
0,1923853,12.79781723022461,25.300874710083008,-9.554513931274414,-24.316286087036133
0,1923853,-13.287712097167969,-27.62928009033203,-4.989402770996094,7.364025115966797
0,1923853,-19.53441047668457,-22.604595184326172,8.379054069519043,18.039583206176758
0,1923854,3.4134879112243652,14.200723648071289,-8.947308540344238,-4.912840843200684
0,1923854,30.42191505432129,15.822308540344238,7.299499988555908,-33.71295928955078
0,1923854,40.37847900390625,-1.3901500701904297,-3.311671495437622,4.563619613647461
0,1923854,-18.089595794677734,-11.829737663269043,-27.160032272338867,28.498079299926758
0,1923854,-21.776538848876953,-2.6435773372650146,12.832653999328613,8.175902366638184
0,1923855,5.804234504699707,10.997661590576172,34.45588302612305,4.698274612426758
0,1923855,0.9012710452079773,-7.437926292419434,-10.498570442199707,7.049271583557129
0,1923855,8.182779312133789,17.389039993286133,-3.30711030960083,21.90628433227539
0,1923855,10.363357543945312,17.29696273803711,2.768578052520752,10.018171310424805
0,1923855,-13.356910705566406,-36.483131408691406,-28.946998596191406,-9.860879898071289
0,1923855,-16.553504943847656,-4.765147686004639,3.5227246284484863,-2.8120293617248535
0,1923856,1.504576325416565,30.94152069091797,28.3143367767334,5.617105960845947
0,1923856,14.774620056152344,9.477503776550293,-14.508748054504395,-2.203869342803955
0,1923856,-6.020349502563477,-25.767852783203125,-17.450532913208008,-2.7734885215759277
0,1923856,-28.35740089416504,-12.48487377166748,18.393617630004883,-22.315908432006836
0,1923856,21.55758285522461,18.3197021484375,-7.191184043884277,-25.470565795898438
0,1923856,23.22972297668457,2.998933792114258,-15.445833206176758,21.483680725097656
0,1923857,-10.947427749633789,13.205592155456543,19.668190002441406,11.157958030700684
0,1923857,-5.711140155792236,-6.509788990020752,28.86260414123535,-11.053019523620605
0,1923857,7.726203441619873,-21.569873809814453,-0.35498008131980896,-9.704338073730469
0,1923857,13.992009162902832,27.354427337646484,-27.671215057373047,-9.42881965637207
0,1923857,-10.91917896270752,0.7550874352455139,11.048046112060547,11.627421379089355
0,1923857,-6.183755397796631,-26.388477325439453,24.98946762084961,9.707489967346191
0,1923859,23.010986328125,10.080573081970215,-12.933472633361816,31.3866024017334
0,1923859,8.668134689331055,-6.584242343902588,8.559248924255371,32.829463958740234
0,1923859,-7.174043655395508,-19.2736759185791,6.142526149749756,-50.395362854003906
0,1923859,-18.77491569519043,3.316685676574707,-37.766300201416016,-18.21025276184082
0,1923859,-16.13577651977539,2.1173651218414307,3.245089530944824,37.74127197265625
0,1923861,26.24243927001953,23.544790267944336,15.001072883605957,0.8563035726547241
0,1923863,11.190622329711914,9.25698471069336,-36.71500015258789,-46.10313034057617
0,1923865,-52.04390335083008,-34.03294372558594,-19.204242706298828,-93.19330596923828
0,1923867,3.646442174911499,-0.9918205738067627,44.538753509521484,76.72879791259766
0,1923869,44.504119873046875,24.550790786743164,41.64926528930664,131.9159698486328
0,1923871,-46.16606521606445,-3.1358225345611572,-35.98888397216797,-106.1363754272461
0,1923873,-9.422137260437012,-2.9979257583618164,-47.37126922607422,-66.35701751708984
0,1923875,54.42719650268555,1.592665195465088,33.667396545410156,106.3506851196289
0,1923877,-13.196208953857422,8.635432243347168,15.917213439941406,47.43998718261719
0,1923879,-36.867191314697266,-2.9095139503479004,-49.7114372253418,-57.9054069519043
0,1923881,14.332939147949219,-24.456769943237305,20.894941329956055,-39.60811996459961
0,1923883,42.88555908203125,15.485818862915039,53.486114501953125,3.0607750415802
0,1923885,-23.82904052734375,-0.26398637890815735,-16.150474548339844,-7.130187511444092
0,1923888,-26.371505737304688,-5.814868450164795,-24.206567764282227,5.631597518920898
0,1923889,39.61014938354492,4.000425815582275,10.732203483581543,41.752098083496094
0,1923890,-12.788588523864746,-19.207185745239258,-5.8355841636657715,-17.488285064697266
0,1923893,-16.24477767944336,26.782899856567383,2.985079765319824,-29.216243743896484
0,1923894,8.036894798278809,16.402875900268555,19.36475944519043,13.333403587341309
0,1923994,-19.797182083129883,-25.975759506225586,-26.10655975341797,-11.65042781829834
0,1923994,6.083447456359863,-4.7363057136535645,-3.414095640182495,4.999152183532715
0,1923994,18.17527961730957,7.06742525100708,20.975500106811523,8.008423805236816
0,1923995,4.9458489418029785,-13.832440376281738,-10.224824905395508,8.029623985290527
0,1923995,-13.311346054077148,-6.6130900382995605,-5.913624286651611,26.124950408935547
0,1923995,-15.531804084777832,21.761634826660156,-10.471684455871582,-17.184499740600586
0,1923995,16.43897247314453,3.095710515975952,-11.841197967529297,-41.001060485839844
0,1923995,13.54281997680664,3.493372917175293,14.958464622497559,9.360105514526367
0,1923995,-13.678948402404785,3.033390522003174,17.173259735107422,19.843107223510742
0,1923996,8.394912719726562,-15.104714393615723,-3.417041063308716,-12.208429336547852
0,1923996,18.860502243041992,14.873381614685059,6.244232177734375,-5.531179904937744
0,1923996,-10.07298469543457,4.570950508117676,4.125473499298096,1.638669729232788
0,1923996,-21.451887130737305,-20.710281372070312,-8.575063705444336,13.013456344604492
0,1923996,-1.9065512418746948,15.971940040588379,5.269646167755127,28.5220890045166
0,1923996,18.178964614868164,16.36875343322754,-0.6931182742118835,-8.546124458312988
0,1923997,6.8690185546875,-11.124300956726074,-2.844093084335327,-9.67788314819336
0,1923997,-4.822843074798584,-19.869699478149414,5.072927951812744,19.612688064575195
0,1923997,-8.867753982543945,2.264376401901245,1.3604379892349243,-10.707823753356934
0,1923997,7.142288684844971,9.52634048461914,-16.45130157470703,-27.346328735351562
0,1923997,2.551222562789917,-12.219078063964844,-16.917741775512695,-9.149381637573242
0,1923997,-13.104228973388672,-8.730047225952148,7.156527996063232,15.358115196228027
0,1923998,6.781092643737793,0.9129898548126221,7.293826103210449,20.041086196899414
0,1923998,9.112483978271484,6.28677225112915,2.408297300338745,7.170616626739502
0,1923998,-4.264223098754883,3.7206637859344482,12.74438190460205,-2.1189417839050293
0,1923998,4.976726055145264,17.019603729248047,10.071113586425781,-24.184167861938477
0,1923998,8.978270530700684,-7.520171165466309,-16.023012161254883,0.06513092666864395
0,1923999,-18.135662078857422,-15.913209915161133,-33.39100646972656,21.019256591796875
0,1923999,-22.231006622314453,11.699639320373535,18.11550521850586,-11.78884220123291
0,1923999,18.161209106445312,-1.043129563331604,16.6574649810791,-16.025468826293945
0,1923999,8.668724060058594,0.027822282165288925,-22.38020133972168,15.098116874694824
0,1923999,-31.80585289001465,12.313821792602539,17.565763473510742,8.06431770324707
0,1923999,0.8972419500350952,-7.068015098571777,17.498254776000977,-28.231287002563477
0,1924000,20.85466957092285,-20.70677375793457,-0.5663935542106628,-1.9110057353973389
0,1924000,11.204967498779297,18.213165283203125,1.6919842958450317,25.993515014648438
0,1924000,5.461268901824951,24.813701629638672,-10.32758903503418,4.275510787963867
0,1924000,-19.737064361572266,-22.910701751708984,-5.9318437576293945,-12.718915939331055
0,1924000,-12.970559120178223,-19.518726348876953,5.5406270027160645,1.5752755403518677
0,1924000,10.428971290588379,12.716948509216309,8.02724838256836,-5.455499172210693
0,1924001,16.638946533203125,8.258516311645508,-2.648711919784546,-6.475919246673584
0,1924001,12.645846366882324,5.86203670501709,-6.161612033843994,10.533646583557129
0,1924001,-9.852629661560059,-10.332395553588867,4.515218734741211,-14.486238479614258
0,1924001,-24.40717124938965,-14.831169128417969,10.19051456451416,-0.22336526215076447
0,1924001,-6.352890491485596,12.668659210205078,-6.99880838394165,2.7274229526519775
0,1924001,11.783451080322266,17.82083511352539,-31.7547550201416,-2.6937167644500732
0,1924002,3.945239543914795,1.6564960479736328,8.279410362243652,7.4875993728637695
0,1924002,-13.205191612243652,-23.188880920410156,24.95144271850586,9.602928161621094
0,1924002,2.0293078422546387,-6.620865821838379,-16.01262092590332,12.839031219482422
0,1924002,35.0069465637207,16.401891708374023,-9.946284294128418,-4.776340961456299
0,1924002,10.94228458404541,4.804376602172852,1.4086620807647705,-4.627878665924072
0,1924004,-43.424503326416016,-4.990321159362793,-4.018136978149414,2.560950756072998
0,1924004,-6.362828254699707,-14.178428649902344,12.943551063537598,11.213661193847656
0,1924004,40.847843170166016,-8.165190696716309,5.695418834686279,-0.3052022159099579
0,1924004,-19.85455894470215,9.680907249450684,-21.069347381591797,-15.300774574279785
0,1924004,-21.4127197265625,3.765988826751709,-0.9271531105041504,-9.32814884185791
0,1924006,26.995601654052734,-26.983293533325195,24.104761123657227,17.57579803466797
0,1924007,4.434359073638916,-0.6816020607948303,4.342940807342529,-2.665407419204712
0,1924008,-11.146533966064453,39.886375427246094,-22.1434326171875,-32.64961624145508
0,1924011,-12.20813274383545,5.733030319213867,-9.211018562316895,11.420591354370117
0,1924012,1.764086127281189,-10.147562980651855,13.101398468017578,19.60171127319336
0,1924015,15.933643341064453,-12.978260040283203,10.091594696044922,9.409590721130371
0,1924016,9.12041187286377,-9.530719757080078,-13.690812110900879,-15.894192695617676
0,1924019,-11.141961097717285,8.78567886352539,-1.0966068506240845,-40.425811767578125
0,1924020,-19.05291748046875,15.518677711486816,15.054800033569336,9.59605884552002
0,1924023,28.63246726989746,32.00264358520508,-5.735260486602783,40.305824279785156
0,1924024,-1.1557457447052002,-9.183137893676758,12.671319007873535,24.262224197387695
0,1924027,-40.623069763183594,-35.161590576171875,-4.802732467651367,-25.56500244140625
0,1924028,14.964127540588379,-1.4668352603912354,-25.695043563842773,-16.50831413269043
0,1924031,22.327838897705078,7.087616443634033,23.290109634399414,-15.485101699829102
0,1924032,7.787686347961426,-8.268328666687012,10.080534934997559,-27.404821395874023
0,1924035,-24.360828399658203,-3.464770793914795,-11.497722625732422,59.766441345214844
0,1924036,-11.03924560546875,16.363439559936523,3.920706272125244,34.500755310058594
0,1924039,26.077983856201172,-4.9263105392456055,-8.122936248779297,-38.90483856201172
0,1924041,-20.34177017211914,0.02294524386525154,-8.805193901062012,-27.595781326293945
0,1924043,-9.195296287536621,3.112968921661377,16.92390251159668,4.637350082397461
0,1924154,21.36321449279785,-15.247251510620117,9.25936508178711,58.416893005371094
0,1924155,1.3707398176193237,17.274547576904297,-24.503673553466797,33.454776763916016
0,1924155,-5.180075168609619,3.1060004234313965,9.232465744018555,-47.998863220214844
0,1924155,10.460655212402344,-9.724550247192383,21.23479461669922,-28.770713806152344
0,1924155,2.9340248107910156,26.771709442138672,-17.763172149658203,10.19312858581543
0,1924155,-26.86634063720703,-8.8477201461792,-2.3060638904571533,-2.8412954807281494
0,1924155,7.045052528381348,-16.012367248535156,10.88067626953125,3.6752068996429443
0,1924156,31.161396026611328,19.611955642700195,-24.46462059020996,2.4855711460113525
0,1924156,-1.057911992073059,-14.349430084228516,-16.320537567138672,-16.173362731933594
0,1924156,-15.692511558532715,-23.51146125793457,17.77350616455078,-23.791152954101562
0,1924156,-12.182306289672852,4.089259624481201,-2.727703332901001,-5.485612869262695
0,1924156,-0.2479267418384552,6.034550666809082,-0.22317001223564148,22.90526580810547
0,1924156,-4.265013694763184,21.254106521606445,11.796913146972656,-4.6015753746032715
0,1924157,-9.966002464294434,-10.307441711425781,-6.036398887634277,-22.801565170288086
0,1924157,13.222009658813477,-32.87262725830078,1.4963457584381104,19.839887619018555
0,1924157,13.091737747192383,20.155778884887695,8.509733200073242,16.66716194152832
0,1924157,-0.20089289546012878,12.674468040466309,-0.18337690830230713,-22.84824562072754
0,1924157,-5.139536380767822,-14.160311698913574,-2.7351791858673096,3.175865888595581
0,1924157,-16.229476928710938,-1.1563119888305664,13.372993469238281,35.73877716064453
0,1924158,1.8599216938018799,14.163535118103027,11.005303382873535,8.098212242126465
0,1924158,9.574689865112305,2.3474950790405273,-15.917457580566406,-11.833670616149902
0,1924158,9.200165748596191,-3.4770710468292236,4.699202060699463,-18.559513092041016
0,1924158,7.782286167144775,12.460728645324707,4.968670845031738,-5.397022247314453
0,1924158,-1.7169175148010254,-16.142169952392578,-14.574224472045898,18.99413299560547
0,1924158,8.507200241088867,3.959768533706665,6.115835666656494,2.921560764312744
0,1924159,-2.7018702030181885,22.997543334960938,-3.355401039123535,-9.142682075500488
0,1924159,-21.85720443725586,-27.723215103149414,-22.477508544921875,-5.492758274078369
0,1924159,-10.174113273620605,-12.185212135314941,-4.679346561431885,4.141257286071777
0,1924159,11.96091365814209,17.879255294799805,22.037357330322266,17.45987892150879
0,1924159,20.013851165771484,4.001206398010254,17.56535530090332,2.526801109313965
0,1924159,14.231609344482422,-4.743162631988525,-19.402551651000977,-27.751375198364258
0,1924160,-10.680472373962402,-9.291947364807129,-26.07805633544922,-8.988546371459961
0,1924160,-22.344276428222656,-16.60555648803711,12.138619422912598,27.469240188598633
0,1924160,-0.42154109477996826,15.207002639770508,23.874168395996094,-0.19934123754501343
0,1924160,-1.27823007106781,23.220401763916016,12.558370590209961,-26.80957794189453
0,1924160,-4.50970458984375,-24.708341598510742,-7.036567687988281,7.60094690322876
0,1924161,16.87188148498535,0.4110977053642273,-17.345354080200195,12.731335639953613
0,1924161,-2.4349632263183594,14.929291725158691,-1.8674532175064087,0.960228443145752
0,1924161,-16.510135650634766,-13.008009910583496,-1.5682011842727661,2.237785816192627
0,1924161,26.521726608276367,25.59046173095703,-7.681654930114746,-2.472836494445801
0,1924161,0.7413394451141357,2.9873478412628174,2.3622095584869385,6.158977031707764
0,1924161,-55.715614318847656,-41.609657287597656,27.49925994873047,-4.345651626586914
0,1924162,22.505571365356445,15.465476989746094,0.041298653930425644,-5.700489044189453
0,1924162,54.3233757019043,24.249713897705078,-26.329227447509766,10.604329109191895
0,1924162,-35.32038116455078,-18.83541488647461,24.699020385742188,7.010136127471924
0,1924162,-19.140445709228516,2.4027817249298096,3.337785005569458,-5.6292724609375
0,1924162,23.905132293701172,9.99567985534668,-22.890840530395508,-4.343247890472412
0,1924162,-3.1990647315979004,-10.166550636291504,14.36429214477539,-5.83921480178833
0,1924163,-2.469787120819092,12.94033145904541,9.659636497497559,-1.9064719676971436
0,1924163,14.902963638305664,5.066253662109375,-1.2294199466705322,-6.366203784942627
0,1924163,6.550564289093018,-29.8830509185791,-18.11603546142578,-2.317579507827759
0,1924163,10.748613357543945,-8.179015159606934,-4.036511421203613,12.017350196838379
0,1924163,9.386124610900879,20.531190872192383,0.7691016793251038,-20.002864837646484
0,1924163,-29.11664581298828,7.255548477172852,-16.43418312072754,-0.49585065245628357
0,1924164,-20.099971771240234,-0.780565619468689,21.496517181396484,22.56260108947754
0,1924164,20.964061737060547,12.318682670593262,21.81321907043457,-5.5006327629089355
0,1924165,-16.331722259521484,0.20039579272270203,-28.645593643188477,-0.021255511790513992
0,1924165,-36.85348892211914,-20.82127571105957,-17.163169860839844,-30.89165687561035
0,1924165,8.067034721374512,0.5738147497177124,14.726314544677734,-3.744724750518799
0,1924166,5.227969646453857,9.646223068237305,-11.1139497756958,55.111839294433594
0,1924166,2.811588764190674,-20.415006637573242,11.598368644714355,-3.386486768722534
0,1924167,4.166123867034912,-6.8273539543151855,27.922286987304688,-14.97812557220459
0,1924168,2.3143961429595947,19.129058837890625,-19.401975631713867,28.083133697509766
0,1924171,1.494101643562317,-17.286386489868164,-3.019876003265381,21.661314010620117
0,1924172,-5.326858043670654,-7.425804615020752,11.279953956604004,-17.697446823120117
0,1924175,15.060722351074219,31.108793258666992,-10.499898910522461,-35.94863510131836
0,1924176,14.093438148498535,-13.352095603942871,-8.02538776397705,16.819671630859375
0,1924179,32.522850036621094,-13.517718315124512,-0.20230284333229065,40.65083694458008
0,1924180,7.619032382965088,-7.767989635467529,5.966329097747803,-78.314208984375
0,1924183,-38.60053634643555,4.102893352508545,14.886645317077637,-45.86992645263672
0,1924184,-3.6141083240509033,56.04283142089844,1.6161853075027466,91.1490478515625
0,1924187,-17.10508918762207,-21.46946144104004,-18.121810913085938,-16.961864471435547
0,1924188,-10.393585205078125,-43.850826263427734,-11.659346580505371,-73.23456573486328
0,1924191,28.50347328186035,35.8437385559082,6.591028213500977,78.45320129394531
0,1924192,-12.035566329956055,17.444345474243164,27.518909454345703,84.34123229980469
0,1924195,-5.958890438079834,-15.368130683898926,-13.005331993103027,-95.70693969726562
0,1924196,13.573390007019043,2.4682090282440186,-22.913570404052734,-80.70046997070312
0,1924199,-18.521732330322266,9.920949935913086,43.009307861328125,62.9476318359375
0,1924200,3.055704116821289,1.3188846111297607,16.82712173461914,43.42092514038086
0,1924203,21.993478775024414,-14.853107452392578,-55.90959930419922,-14.12233829498291
0,1924204,2.087740182876587,-13.303502082824707,-17.780736923217773,-0.8902897834777832
0,1924327,4.087924957275391,15.616774559020996,48.951194763183594,5.475483417510986
0,1924328,-11.768880844116211,3.548325538635254,12.291415214538574,-11.603009223937988
0,1924328,-7.983277797698975,-20.915172576904297,-40.09602355957031,-27.98676872253418
0,1924328,4.701026439666748,0.5183282494544983,-6.971463203430176,-6.138544082641602
0,1924328,-17.77462387084961,16.00681495666504,31.247085571289062,17.322525024414062
0,1924328,12.48083209991455,-4.191810131072998,7.942061424255371,13.419391632080078
0,1924328,21.498258590698242,-17.25492286682129,-19.94991111755371,-15.811383247375488
0,1924329,-21.528095245361328,3.0089802742004395,-7.597010135650635,-9.538572311401367
0,1924329,-3.447786808013916,28.970151901245117,22.841890335083008,24.909198760986328
0,1924329,19.37093162536621,-11.12023639678955,-4.926088809967041,-18.799875259399414
0,1924329,-19.69371223449707,-25.600603103637695,-27.221668243408203,5.70194149017334
0,1924329,-15.776665687561035,16.466493606567383,14.5347900390625,45.891963958740234
0,1924329,24.713375091552734,-7.393278121948242,2.754196882247925,-16.624614715576172
0,1924330,9.556085586547852,-10.051506996154785,-22.334049224853516,-22.550569534301758
0,1924330,-0.27923476696014404,21.818527221679688,18.133214950561523,18.972116470336914
0,1924330,10.155817985534668,0.8415819406509399,4.9275431632995605,13.984484672546387
0,1924330,-11.79092788696289,-15.255763053894043,-1.0484353303909302,20.65221405029297
0,1924330,-17.67082405090332,11.878386497497559,14.58156967163086,9.937077522277832
0,1924330,10.801499366760254,22.67795181274414,-10.837910652160645,-34.526100158691406
0,1924331,4.306765079498291,-15.273713111877441,-2.6343393325805664,-21.837459564208984
0,1924331,-4.637417316436768,-13.83816909790039,-12.539932250976562,-4.814914226531982
0,1924331,0.5707501769065857,17.340669631958008,-4.2039690017700195,-4.078445911407471
0,1924331,-3.1737608909606934,-2.258730173110962,18.949583053588867,-9.342961311340332
0,1924331,5.969712257385254,-2.148094654083252,9.928446769714355,-25.480310440063477
0,1924332,-3.1847965717315674,-16.55510711669922,-10.104927062988281,10.986305236816406
0,1924332,-11.131463050842285,-15.546638488769531,-7.7856950759887695,21.531145095825195
0,1924332,-3.1154143810272217,23.853158950805664,8.059020042419434,-17.785051345825195
0,1924332,0.33084461092948914,3.5238382816314697,-19.3570556640625,-7.91256046295166
0,1924332,8.451225280761719,-4.45726203918457,6.4714531898498535,-5.000617027282715
0,1924332,2.258312702178955,5.9446940422058105,9.91320514678955,-16.35767364501953
0,1924333,-11.68043327331543,-5.64654541015625,-16.779993057250977,15.649502754211426
0,1924333,1.9472951889038086,-14.77206039428711,33.63911056518555,41.66185760498047
0,1924333,15.149246215820312,21.4754581451416,11.202919960021973,7.518889904022217
0,1924333,-1.8809340000152588,20.68012046813965,-41.51909637451172,-18.759035110473633
0,1924333,1.9371540546417236,-17.34914779663086,2.8097755908966064,23.31671142578125
0,1924333,-2.744603157043457,-1.131864070892334,14.18733024597168,33.244903564453125
0,1924334,-13.24642562866211,-0.5935492515563965,10.576213836669922,16.257347106933594
0,1924334,27.862279891967773,-1.2287787199020386,10.230257034301758,1.8144181966781616
0,1924334,6.313876152038574,3.9131171703338623,-16.39689826965332,-8.403980255126953
0,1924334,-22.69624137878418,-6.306790351867676,-2.609055995941162,-6.197380065917969
0,1924334,17.143177032470703,7.522981643676758,-9.844873428344727,-14.546164512634277
0,1924334,-2.9392008781433105,13.954435348510742,5.762538909912109,5.582058906555176
0,1924335,-34.97358322143555,-19.36736488342285,8.642855644226074,-7.036479473114014
0,1924335,9.174449920654297,-30.27431297302246,-11.782447814941406,-34.89502716064453
0,1924335,22.729230880737305,13.049306869506836,-6.912525653839111,-2.974677085876465
0,1924335,-23.952219009399414,32.81744384765625,-11.847911834716797,-6.1655964851379395
0,1924335,-5.350252628326416,-5.561585903167725,9.4285888671875,-26.82660484313965
0,1924335,22.43852424621582,-17.938610076904297,2.706613540649414,28.327917098999023
0,1924336,-20.07720947265625,-3.2464098930358887,-4.79895544052124,39.15943145751953
0,1924336,-3.657191038131714,-6.274730205535889,5.714313507080078,-35.55134201049805
0,1924336,34.122188568115234,8.43365478515625,-14.690668106079102,-26.298795700073242
0,1924336,-10.967594146728516,1.830450415611267,-2.515749216079712,45.27019119262695
0,1924336,-12.505077362060547,1.200095295906067,32.51655578613281,9.937969207763672
0,1924336,16.108762741088867,20.675968170166016,-4.4395222663879395,-22.90066146850586
0,1924337,8.71483325958252,-8.25876522064209,-23.436635971069336,14.670999526977539
0,1924337,1.801745057106018,-30.803417205810547,13.094922065734863,-8.374378204345703
0,1924337,-6.4865264892578125,-4.886688709259033,-2.558413028717041,-20.906137466430664
0,1924337,-16.282323837280273,30.873699188232422,-6.776207447052002,17.124038696289062
0,1924337,-28.18153953552246,18.52991485595703,19.412446975708008,12.375580787658691
0,1924338,17.430774688720703,-21.962045669555664,13.053019523620605,-12.671625137329102
0,1924338,35.67587661743164,-17.568206787109375,-13.318024635314941,-12.897998809814453
0,1924339,-9.677020072937012,32.42034149169922,5.557320594787598,10.278897285461426
0,1924339,-3.7933876514434814,15.322518348693848,39.497562408447266,4.863750457763672
0,1924339,8.247214317321777,-35.492855072021484,-16.817962646484375,-16.026939392089844
0,1924339,3.4479897022247314,-0.9679612517356873,-22.978553771972656,13.744071960449219
0,1924340,5.979811668395996,20.27305030822754,6.692876815795898,13.839622497558594
0,1924340,0.7491467595100403,-6.476771831512451,-19.518070220947266,0.2678629457950592
0,1924341,-14.08156681060791,-10.93093490600586,19.31573486328125,23.508544921875
0,1924342,-9.873270988464355,1.6355724334716797,22.281108856201172,-28.663780212402344
0,1924345,20.3891658782959,4.974355697631836,-45.14073944091797,-66.56641387939453
0,1924346,4.298741340637207,-11.741990089416504,-47.99554443359375,21.674922943115234
0,1924349,-2.3322720527648926,-2.3973708152770996,13.643623352050781,50.06124496459961
0,1924350,19.647844314575195,-10.793564796447754,45.79582214355469,9.883480072021484
0,1924353,-37.69243240356445,-28.736186981201172,8.008421897888184,-26.83658790588379
0,1924354,-62.34600067138672,35.402679443359375,-16.784183502197266,-47.37870788574219
0,1924357,-5.241447925567627,32.31117248535156,2.344972610473633,10.176351547241211
0,1924358,32.69925308227539,-9.428966522216797,7.110835075378418,40.90299987792969
0,1924361,36.32503128051758,-7.303001403808594,-3.174934148788452,8.636221885681152
0,1924362,-4.7684407234191895,-11.00672435760498,0.4812735617160797,-12.855508804321289
0,1924365,-26.15517234802246,11.95754337310791,5.425755023956299,7.432679653167725
0,1924366,5.013134479522705,14.393292427062988,8.405102729797363,4.501410484313965
0,1924369,1.1836971044540405,-11.345985412597656,4.305822849273682,22.162511825561523
0,1924371,-3.7257235050201416,-16.64646339416504,-6.1172966957092285,1.2784451246261597
0,1924373,23.802949905395508,21.36318016052246,-19.30246925354004,-85.93736267089844
0,1924375,31.529537200927734,3.2896270751953125,-9.20788860321045,13.112346649169922
0,1924377,-1.7927004098892212,-39.19462203979492,-0.8626027703285217,63.03758239746094
0,1924379,-5.363694190979004,4.418783664703369,-13.81380844116211,11.376484870910645
0,1924382,12.269966125488281,33.583866119384766,28.165990829467773,-14.799450874328613
0,1924513,-31.48982048034668,15.495074272155762,25.5318603515625,-36.97073745727539
0,1924513,-29.196678161621094,-23.821006774902344,-24.382768630981445,21.23067855834961
0,1924514,24.286304473876953,-26.652645111083984,-5.419508934020996,-0.6588929891586304
0,1924514,10.352584838867188,25.625497817993164,12.513776779174805,-9.996707916259766
0,1924514,-19.288589477539062,14.041863441467285,0.24607741832733154,6.853107929229736
0,1924514,-1.6266740560531616,-20.910829544067383,-17.189611434936523,-13.534915924072266
0,1924514,3.244016647338867,5.622519493103027,-5.251650333404541,3.8642518520355225
0,1924514,1.2618359327316284,8.15130615234375,15.586492538452148,-16.536731719970703
0,1924515,3.1309988498687744,-26.873376846313477,9.92654800415039,4.888113021850586
0,1924515,-2.8361222743988037,-5.380249500274658,-0.5687099099159241,29.86664390563965
0,1924515,4.713926792144775,29.882917404174805,-7.8340911865234375,-32.03597640991211
0,1924515,3.1001694202423096,-10.00344467163086,-14.067376136779785,-24.9462947845459
0,1924515,-8.505889892578125,-19.03169822692871,-13.471831321716309,26.49045753479004
0,1924515,3.215951681137085,16.24172592163086,19.341327667236328,19.05292320251465
0,1924516,17.05413818359375,1.9887686967849731,20.73464012145996,11.169979095458984
0,1924516,-9.975371360778809,2.585435152053833,-20.145214080810547,13.35926628112793
0,1924516,-22.97974395751953,13.512351989746094,-1.1583410501480103,-1.9965558052062988
0,1924516,19.076622009277344,-5.303643703460693,21.587318420410156,4.687075614929199
0,1924516,19.7369384765625,-4.318759441375732,-9.399134635925293,11.676676750183105
0,1924516,-24.66632843017578,-1.723127007484436,-5.709193706512451,-6.9552001953125
0,1924517,-5.2576494216918945,-3.149028778076172,10.139450073242188,-4.9622626304626465
0,1924517,11.86425495147705,7.636232376098633,5.940421104431152,5.746949195861816
0,1924517,-5.865306377410889,-6.207411289215088,-7.4644646644592285,-3.852126359939575
0,1924517,10.66895866394043,-6.717204570770264,-26.803241729736328,-29.7103328704834
0,1924517,13.423238754272461,8.84078598022461,-5.371582508087158,-7.51961612701416
0,1924517,-13.406153678894043,4.846260070800781,15.476571083068848,29.04897689819336
0,1924518,-18.818218231201172,-13.477612495422363,2.9908077716827393,-4.775953769683838
0,1924518,0.3806166648864746,-12.969611167907715,-3.0999698638916016,-27.498167037963867
0,1924518,9.927384376525879,13.428436279296875,1.850854754447937,0.9313186407089233
0,1924518,0.10248538851737976,1.623279094696045,7.60054874420166,20.088478088378906
0,1924518,-1.8989448547363281,-4.292346954345703,9.081537246704102,3.4222066402435303
0,1924519,7.102359771728516,7.324245452880859,-1.157350778579712,-25.126163482666016
0,1924519,-6.841899394989014,-1.0268752574920654,-4.594486236572266,6.0516533851623535
0,1924519,-15.304505348205566,-6.958144664764404,2.5338008403778076,35.18103790283203
0,1924519,16.67182731628418,14.774918556213379,-7.015659809112549,-6.430901527404785
0,1924519,16.470561981201172,20.5518798828125,-5.962912082672119,-11.176678657531738
0,1924519,-22.241147994995117,-18.959808349609375,15.548486709594727,8.250439643859863
0,1924520,0.21907298266887665,-12.303169250488281,14.691411018371582,-10.257006645202637
0,1924520,31.53005599975586,16.35996437072754,-19.025728225708008,-12.78640079498291
0,1924520,-10.555768013000488,7.098446369171143,-25.369808197021484,3.8828539848327637
0,1924520,-25.37163543701172,-18.85686492919922,27.020153045654297,17.08003044128418
0,1924520,16.469423294067383,-19.594511032104492,17.070199966430664,-1.3049205541610718
0,1924520,19.70314598083496,17.611482620239258,-36.46733474731445,-26.540576934814453
0,1924521,-15.846780776977539,9.086250305175781,4.990067481994629,7.847620964050293
0,1924521,-21.7462100982666,-17.284374237060547,25.647132873535156,7.190295219421387
0,1924521,1.9923566579818726,6.643712043762207,-22.02182960510254,-33.36367416381836
0,1924521,12.948331832885742,4.932020664215088,-8.374555587768555,14.881808280944824
0,1924521,2.566587448120117,-5.513118743896484,7.569449424743652,25.523883819580078
0,1924521,0.7737013101577759,-1.1256680488586426,2.1170408725738525,-13.425915718078613
0,1924522,-13.180493354797363,4.601891994476318,7.742950916290283,18.04366683959961
0,1924522,-3.1836180686950684,14.713388442993164,2.62934947013855,1.1390480995178223
0,1924522,27.42158317565918,-15.5184907913208,-6.612669467926025,-38.63847351074219
0,1924522,-5.316164016723633,-5.045645236968994,-5.903904914855957,0.5945039987564087
0,1924522,-14.827498435974121,25.4000186920166,9.401721000671387,22.701642990112305
0,1924522,-2.2502939701080322,-8.562585830688477,3.162379741668701,-8.859261512756348
0,1924523,8.347424507141113,-12.989991188049316,6.781412601470947,-20.912412643432617
0,1924523,6.394155025482178,-3.140002489089966,-4.904018402099609,-9.073122024536133
0,1924523,-30.213457107543945,-14.836895942687988,-3.6450443267822266,11.800329208374023
0,1924523,10.72202205657959,4.970480442047119,-6.612901210784912,5.5237555503845215
0,1924523,18.765844345092773,12.455733299255371,-29.843589782714844,-9.770187377929688
0,1924523,-22.32454490661621,2.1734862327575684,30.266565322875977,4.640906810760498
0,1924524,13.46377182006836,-0.293912798166275,23.89980697631836,3.783109664916992
0,1924524,9.439708709716797,4.446230411529541,-27.898319244384766,16.891843795776367
0,1924524,-27.63982391357422,5.644532680511475,1.4410367012023926,18.60500717163086
0,1924524,12.030959129333496,0.8757075667381287,5.413146495819092,15.323392868041992
0,1924524,13.434295654296875,6.701303482055664,-3.5384418964385986,21.67481803894043
0,1924526,-21.228845596313477,-21.015867233276367,5.027318477630615,-28.910167694091797
0,1924526,23.140460968017578,-10.470284461975098,12.362299919128418,-11.644194602966309
0,1924526,13.456718444824219,40.414817810058594,-0.35270193219184875,35.672359466552734
0,1924526,-33.84507751464844,-1.0194793939590454,-21.242395401000977,-8.020174980163574
0,1924526,-3.0132477283477783,-21.073833465576172,5.580665588378906,-16.791606903076172
0,1924526,28.457786560058594,1.954795241355896,-1.8683000802993774,-8.381349563598633
0,1924528,5.91102409362793,-18.587955474853516,-18.005220413208008,-21.99504280090332
0,1924529,-30.37439727783203,-21.294750213623047,17.018871307373047,4.3325629234313965
0,1924530,-5.552007675170898,15.00108814239502,-2.448871374130249,11.729830741882324
0,1924533,13.155182838439941,28.918071746826172,-9.894081115722656,-6.179086208343506
0,1924534,3.633605480194092,2.657611131668091,22.23935890197754,-7.827202320098877
0,1924537,20.443023681640625,-7.404362201690674,-15.212255477905273,4.005025386810303
0,1924538,0.4460320472717285,-7.960391998291016,-10.097504615783691,6.586707592010498
0,1924541,-22.886228561401367,-4.2645697593688965,30.255266189575195,-16.467876434326172
0,1924542,-13.31381607055664,-15.067935943603516,-3.9880306720733643,-5.448214530944824
0,1924545,17.08171272277832,15.79733657836914,-16.081523895263672,5.104778289794922
0,1924547,3.026536703109741,24.34026527404785,8.271383285522461,-8.109414100646973
0,1924549,-37.714962005615234,-13.30548095703125,17.408687591552734,46.56737518310547
0,1924551,25.04184913635254,17.651630401611328,7.1077728271484375,20.401037216186523
0,1924553,39.02510452270508,-5.775988578796387,-20.240629196166992,-61.297607421875
0,1924555,-36.192604064941406,-26.993318557739258,-14.936617851257324,-8.594551086425781
0,1924557,-17.626325607299805,16.014511108398438,12.358658790588379,39.11980056762695
0,1924559,23.457921981811523,3.8909621238708496,-2.6821632385253906,7.522704124450684
0,1924561,16.72863006591797,-11.864946365356445,-14.606026649475098,-32.35245895385742
0,1924563,-5.857510089874268,-19.728832244873047,12.149763107299805,10.591231346130371
0,1924565,-20.03749656677246,10.337794303894043,15.812800407409668,27.528833389282227
0,1924567,-0.8068327307701111,30.342836380004883,-8.375425338745117,-11.207411766052246
0,1924569,2.754230499267578,-23.8458309173584,-8.13931941986084,-7.0648932456970215
0,1924571,2.2712950706481934,-12.575364112854004,3.566901922225952,-19.01055145263672
0,1924713,19.045698165893555,14.936610221862793,-6.023279666900635,-11.907912254333496
0,1924713,-7.2787346839904785,-0.7139513492584229,10.316805839538574,14.82354736328125
0,1924714,-15.96246337890625,-7.875092506408691,15.897843360900879,-3.9902684688568115
0,1924714,1.6065298318862915,3.7517406940460205,-28.162044525146484,-9.417710304260254
0,1924714,-6.418277740478516,21.337291717529297,-1.379894495010376,24.709327697753906
0,1924714,7.604011058807373,10.206169128417969,17.76803207397461,11.24305248260498
0,1924714,0.2515476942062378,-24.113605499267578,-21.077728271484375,-9.300668716430664
0,1924714,-14.362605094909668,-15.95319652557373,3.443559169769287,-1.6985788345336914
0,1924715,1.6249542236328125,23.602458953857422,13.113809585571289,-10.574198722839355
0,1924715,14.966496467590332,10.530838012695312,-3.392350435256958,-12.6127290725708
0,1924715,-0.732508659362793,-18.066076278686523,2.5743865966796875,25.040754318237305
0,1924715,-22.740970611572266,-3.3434624671936035,9.827608108520508,11.007612228393555
0,1924715,11.296585083007812,22.88575553894043,-5.004601955413818,-23.07771873474121
0,1924716,15.863476753234863,-4.160478591918945,-5.668900489807129,2.935805559158325
0,1924716,-8.249272346496582,-27.137414932250977,8.671610832214355,-9.203499794006348
0,1924716,4.2964277267456055,16.71556854248047,-17.412487030029297,-9.313960075378418
0,1924716,-4.272960662841797,11.971030235290527,-7.598529815673828,29.177570343017578
0,1924716,-1.891056776046753,-21.16915512084961,10.642277717590332,29.484134674072266
0,1924716,12.884210586547852,4.5119547843933105,-0.5703862309455872,-13.30277156829834
0,1924716,2.816815137863159,4.020340442657471,-10.535961151123047,-15.031867980957031
0,1924717,-15.360092163085938,-15.340935707092285,0.9740790724754333,8.964177131652832
0,1924717,2.46086049079895,13.110808372497559,31.79265785217285,2.927096128463745
0,1924717,22.063274383544922,18.257368087768555,5.594122409820557,-0.24037906527519226
0,1924717,1.0309209823608398,-15.544389724731445,-26.522239685058594,-24.033510208129883
0,1924717,-4.734032154083252,-12.54116439819336,-1.3294202089309692,-2.362377643585205
0,1924718,-2.7052886486053467,-3.211714506149292,6.194077968597412,13.2167329788208
0,1924718,5.563536167144775,2.584261655807495,-0.13444827497005463,-24.015396118164062
0,1924718,5.564000129699707,24.39948272705078,3.697213649749756,5.195906162261963
0,1924718,-5.825547218322754,6.605902671813965,-4.314356803894043,4.939455986022949
0,1924718,-6.965456962585449,-27.628501892089844,-11.263887405395508,-18.17707061767578
0,1924718,-6.57689905166626,-17.298019409179688,-6.206312656402588,22.055299758911133
0,1924719,1.5247775316238403,17.254182815551758,16.513456344604492,2.4093425273895264
0,1924719,0.009126034565269947,11.795448303222656,-4.636512756347656,-13.839512825012207
0,1924719,-9.595046043395996,-6.802757263183594,-9.011340141296387,9.525506973266602
0,1924719,3.985872745513916,1.6324260234832764,14.110215187072754,-5.271183967590332
0,1924719,-3.124338150024414,-3.2839515209198,1.270147681236267,11.5606050491333
0,1924719,-12.41811752319336,-7.144309997558594,5.9533562660217285,25.578968048095703
0,1924720,23.65619659423828,-1.1550171375274658,2.139669418334961,-11.250537872314453
0,1924720,5.705063343048096,10.398162841796875,-9.007597923278809,-20.958271026611328
0,1924720,-25.173328399658203,17.175647735595703,4.732847213745117,10.773941993713379
0,1924720,13.340319633483887,-14.763250350952148,18.74313735961914,5.800859451293945
0,1924720,22.43160629272461,-19.775249481201172,-27.810577392578125,-3.411820411682129
0,1924720,-24.51506996154785,4.4790120124816895,-9.486674308776855,4.159421920776367
0,1924721,-19.388160705566406,8.997004508972168,31.579755783081055,-12.515802383422852
0,1924721,20.820161819458008,16.61083984375,-32.95250701904297,0.5127593874931335
0,1924721,6.068355083465576,5.930375099182129,-3.725327253341675,4.264634132385254
0,1924721,6.466536521911621,-9.218306541442871,45.22335433959961,-14.056368827819824
0,1924721,7.375576972961426,-13.660277366638184,-15.320158958435059,3.5169878005981445
0,1924721,-23.272232055664062,-6.878093242645264,-17.309280395507812,11.59302043914795
0,1924722,10.104842185974121,27.462263107299805,14.779950141906738,-18.99122428894043
0,1924722,17.15453338623047,1.8380848169326782,-18.196508407592773,0.194482684135437
0,1924722,-37.622379302978516,-32.035884857177734,-2.8424794673919678,33.03464889526367
0,1924722,-9.488283157348633,4.106230735778809,23.77861976623535,-22.265249252319336
0,1924722,30.185331344604492,-6.661418914794922,-22.58785057067871,-18.888498306274414
0,1924722,4.3912787437438965,-0.11045128107070923,-10.114107131958008,20.051321029663086
0,1924723,-6.632028579711914,36.61140060424805,39.528011322021484,0.18090012669563293
0,1924723,0.013013421557843685,-9.180749893188477,-5.887438774108887,4.90429162979126
0,1924723,-3.5072078704833984,-9.757041931152344,-29.34817886352539,2.935798406600952
0,1924723,-5.858757495880127,7.4704155921936035,6.004260063171387,-7.1016035079956055
0,1924723,2.373839855194092,-13.119779586791992,8.046734809875488,-5.736136436462402
0,1924723,13.469552040100098,22.247146606445312,-1.6860324144363403,-6.38552713394165
0,1924724,-1.8386149406433105,-7.731573581695557,3.875048875808716,10.327136039733887
0,1924724,-9.105708122253418,-20.565420150756836,13.457335472106934,28.99984359741211
0,1924724,14.332131385803223,38.63235855102539,-2.7277801036834717,-2.2477636337280273
0,1924724,-3.363129138946533,-7.430037021636963,-5.503882884979248,-31.873340606689453
0,1924724,-16.660734176635742,-41.23541259765625,11.248577117919922,11.154720306396484
0,1924725,10.70230484008789,12.154786109924316,8.818708419799805,13.781553268432617
0,1924725,10.760876655578613,25.182044982910156,-25.1484432220459,-28.829988479614258
0,1924725,-11.431063652038574,-21.8378849029541,-14.157149314880371,2.5724775791168213
0,1924725,-5.5371527671813965,-6.774277687072754,15.737092018127441,16.42090606689453
0,1924725,7.107069492340088,33.056304931640625,-2.7273056507110596,-12.152509689331055
0,1924727,-7.458037376403809,-21.151723861694336,11.193391799926758,1.6855370998382568
0,1924727,-10.169397354125977,-18.339902877807617,6.106362342834473,-10.161785125732422
0,1924727,15.783756256103516,29.655071258544922,-27.255996704101562,-14.503308296203613
0,1924727,5.397848606109619,-16.45623207092285,-17.161531448364258,11.233642578125
0,1924727,-22.283906936645508,-17.565433502197266,10.435763359069824,9.128644943237305
0,1924727,-0.7317394018173218,18.321311950683594,21.099550247192383,19.112455368041992
0,1924727,19.14055824279785,-0.06644794344902039,11.374731063842773,8.91030216217041
0,1924729,3.773878574371338,8.088526725769043,2.866750955581665,-11.51150894165039
0,1924730,-11.347503662109375,1.0576667785644531,-14.358126640319824,-33.47231674194336
0,1924733,0.5196067690849304,-21.30934715270996,-16.074020385742188,38.24034118652344
0,1924734,8.880249977111816,20.053993225097656,13.556278228759766,82.5436019897461
0,1924737,7.123433589935303,5.688966274261475,0.9185987114906311,-104.12249755859375
0,1924738,1.2665977478027344,-22.402381896972656,-16.588104248046875,-88.16162872314453
0,1924741,-8.346117973327637,18.562803268432617,11.623501777648926,109.70751953125
0,1924742,-4.438332557678223,10.36778450012207,16.580121994018555,54.75484848022461
0,1924745,7.460050582885742,-24.964563369750977,-23.437339782714844,-69.61772918701172
0,1924746,-7.435954570770264,-14.594001770019531,-17.190750122070312,-9.945591926574707
0,1924749,-20.502174377441406,21.048189163208008,28.651535034179688,15.84494400024414
0,1924750,3.7929975986480713,22.049686431884766,17.245725631713867,-28.853275299072266
0,1924753,8.779595375061035,-10.598889350891113,-7.526129722595215,19.99669647216797
0,1924754,15.698132514953613,-11.755659103393555,-16.08139419555664,6.576226234436035
0,1924757,12.15762996673584,3.568696975708008,-19.7310848236084,-4.123563766479492
0,1924758,-17.962955474853516,-11.123217582702637,29.198383331298828,22.289907455444336
0,1924761,-20.815143585205078,21.4577693939209,37.593746185302734,-35.018123626708984
0,1924762,7.765997886657715,26.857206344604492,-37.483360290527344,-25.974552154541016
0,1924765,26.568899154663086,-23.896957397460938,-17.114788055419922,40.425132751464844
0,1924766,-2.449704647064209,-12.937647819519043,13.21254825592041,35.26393508911133
0,1924769,-22.754528045654297,-1.8566923141479492,-18.39764976501465,-10.649928092956543
0,1924770,-0.5755847096443176,-8.15897274017334,11.28482437133789,-54.2988166809082
0,1924773,8.361801147460938,-5.084671974182129,15.713115692138672,-9.304375648498535
0,1924774,-4.609985828399658,20.090778350830078,-4.027874946594238,51.82172393798828
0,1924928,-7.606165409088135,0.8070030808448792,1.547760248184204,17.1663761138916
0,1924928,7.087846755981445,-48.05466079711914,-3.8831868171691895,-8.703536033630371
0,1924929,14.482161521911621,12.949623107910156,12.107856750488281,3.52382755279541
0,1924929,8.373529434204102,52.5599479675293,-0.5570908784866333,1.094192624092102
0,1924929,8.905903816223145,-6.122366905212402,-25.70663070678711,-24.7424259185791
0,1924929,-21.130334854125977,-24.442516326904297,2.4440457820892334,-0.019911358132958412
0,1924929,-24.071168899536133,-1.6897804737091064,3.5449585914611816,4.800263404846191
0,1924929,13.174327850341797,20.400083541870117,-2.2764129638671875,-19.758058547973633
0,1924930,17.48712158203125,6.33977746963501,12.661314010620117,30.61425018310547
0,1924930,-5.701846122741699,-19.919254302978516,2.01798939704895,8.725624084472656
0,1924930,-1.9478760957717896,9.610993385314941,-10.84262752532959,-33.950042724609375
0,1924930,-3.4415721893310547,0.8530526757240295,-8.999018669128418,-0.30258646607398987
0,1924930,-21.598827362060547,-27.911436080932617,-1.166939616203308,27.02837562561035
0,1924930,12.428780555725098,9.971972465515137,18.516559600830078,5.260655879974365
0,1924931,16.214338302612305,21.98011589050293,12.585907936096191,-31.671567916870117
0,1924931,2.9995028972625732,-1.1364519596099854,-18.356651306152344,-2.4539740085601807
0,1924931,-15.720993041992188,-12.1868257522583,6.354734897613525,11.357279777526855
0,1924931,-9.550233840942383,-16.76264762878418,-1.3682085275650024,-16.495981216430664
0,1924931,28.81100845336914,1.6517890691757202,-25.82217788696289,10.758672714233398
0,1924931,-10.476845741271973,23.71378517150879,13.293209075927734,13.806132316589355
0,1924932,-18.729469299316406,-1.532369613647461,7.799231052398682,-23.814783096313477
0,1924932,13.899956703186035,-13.729589462280273,-2.1816518306732178,6.189589500427246
0,1924932,-9.238659858703613,11.412983894348145,2.1288936138153076,22.217668533325195
0,1924932,-13.946086883544922,1.6440131664276123,-3.4370923042297363,-6.671053409576416
0,1924932,13.154196739196777,-5.351419925689697,10.423810005187988,-18.6562442779541
0,1924932,18.46287727355957,-1.2969684600830078,9.322453498840332,-21.455949783325195
0,1924933,-0.720369279384613,-0.5393747091293335,-5.358797550201416,2.500415325164795
0,1924933,0.6228160858154297,6.582350730895996,-14.431868553161621,14.691457748413086
0,1924933,11.345888137817383,-2.0330452919006348,11.064847946166992,7.0371503829956055
0,1924933,-16.45151710510254,10.71875,7.7884440422058105,-1.5458321571350098
0,1924933,-6.25630521774292,-2.4759325981140137,-18.176950454711914,-21.86781120300293
0,1924933,7.987269401550293,-21.129047393798828,-4.087128639221191,3.1577510833740234
0,1924934,-11.602005004882812,16.031253814697266,5.789541244506836,8.468552589416504
0,1924934,-0.01878979802131653,5.1544318199157715,13.180688858032227,-3.5651493072509766
0,1924934,3.4202511310577393,-13.480002403259277,-3.531684637069702,26.218719482421875
0,1924934,4.502758502960205,-17.168867111206055,-25.338891983032227,1.9997400045394897
0,1924934,4.324440956115723,-4.625410079956055,5.518332481384277,7.56101655960083
0,1924934,-10.195761680603027,36.122867584228516,27.923311233520508,16.925901412963867
0,1924935,12.36175537109375,2.068603038787842,-8.617108345031738,-27.07345962524414
0,1924935,4.225927352905273,-28.40123748779297,2.2106263637542725,12.195409774780273
0,1924935,-15.195103645324707,-0.1420351266860962,13.752989768981934,6.660172939300537
0,1924935,13.447471618652344,22.83980369567871,-35.44015121459961,-27.074739456176758
0,1924935,2.383159637451172,-1.6120898723602295,-11.440068244934082,-8.505743026733398
0,1924935,-12.01159954071045,-23.521591186523438,27.30483055114746,9.081730842590332
0,1924936,-11.791799545288086,2.661597967147827,4.124871730804443,19.243896484375
0,1924936,6.005945205688477,7.757513046264648,-16.94314193725586,-23.66145896911621
0,1924936,17.692195892333984,14.922870635986328,4.272529125213623,-5.63450813293457
0,1924936,-8.151334762573242,1.7295886278152466,3.7085046768188477,16.57682991027832
0,1924936,-9.835680961608887,-16.114147186279297,-7.448282718658447,-10.011421203613281
0,1924937,4.678643703460693,1.5889705419540405,8.610492706298828,5.772775650024414
0,1924937,9.39935302734375,6.6111884117126465,2.424647808074951,7.528369426727295
0,1924937,-4.445159435272217,10.712504386901855,-4.958632946014404,-4.359323024749756
0,1924937,-10.269028663635254,-6.659676551818848,-12.462688446044922,9.234786033630371
0,1924937,11.971567153930664,-6.8719868659973145,1.71243417263031,19.23946189880371
0,1924937,-0.9932313561439514,-0.37174180150032043,16.8132381439209,-6.053329944610596
0,1924938,-20.794145584106445,-3.631091833114624,12.923198699951172,-25.809185028076172
0,1924938,21.867258071899414,13.201971054077148,8.974528312683105,-9.18130111694336
0,1924938,6.213085174560547,-2.931652784347534,-10.373197555541992,24.577198028564453
0,1924938,-17.853601455688477,-15.43066692352295,-14.178763389587402,-4.472693920135498
0,1924938,20.585853576660156,-1.3077740669250488,3.2360708713531494,-24.083051681518555
0,1924938,-14.297715187072754,15.910246849060059,-2.1049656867980957,29.040870666503906
0,1924939,-22.082637786865234,11.326817512512207,5.2498650550842285,7.221147060394287
0,1924939,38.996158599853516,-9.119904518127441,11.82453727722168,-29.48204803466797
0,1924939,3.9895846843719482,-5.48782205581665,-10.330921173095703,9.219817161560059
0,1924939,-19.578994750976562,-3.852006673812866,-14.079992294311523,17.29716682434082
0,1924939,5.234469890594482,-5.182929992675781,-0.18170654773712158,-18.5761775970459
0,1924939,2.0944340229034424,4.945224761962891,-4.2878737449646,-5.924253463745117
0,1924940,4.64412260055542,3.0259766578674316,2.1533117294311523,19.898653030395508
0,1924940,-4.091368198394775,5.237555503845215,21.628738403320312,-3.5389769077301025
0,1924940,1.774437427520752,2.831733226776123,-24.89820671081543,-24.128597259521484
0,1924940,-18.306238174438477,-14.206109046936035,-19.31644058227539,12.734940528869629
0,1924940,-2.6460249423980713,2.2017405033111572,24.695106506347656,27.7153377532959
0,1924940,13.50651741027832,18.60004234313965,22.847097396850586,-11.355344772338867
0,1924941,-14.422353744506836,-10.950728416442871,5.1977620124816895,-24.605836868286133
0,1924941,27.659412384033203,-24.98403549194336,-37.32680892944336,-0.5309447050094604
0,1924941,-7.9314703941345215,3.0723886489868164,-14.991405487060547,18.89840316772461
0,1924941,-34.43696212768555,14.657350540161133,36.96687316894531,1.0293097496032715
0,1924942,23.933311462402344,7.604124069213867,20.127872467041016,-0.18670476973056793
0,1924943,4.829610347747803,5.627767562866211,-16.9481258392334,3.963901996612549
0,1924943,-8.611881256103516,-9.82689380645752,-15.183887481689453,-8.422780990600586
0,1924943,7.837167263031006,-13.692422866821289,4.8076276779174805,0.6492983102798462
0,1924943,2.0257797241210938,25.388233184814453,7.608083724975586,-4.813746929168701
0,1924943,-4.578962802886963,11.722722053527832,3.3406431674957275,-15.966080665588379
0,1924943,-1.723259687423706,-29.54485321044922,-11.377440452575684,12.34805679321289
0,1924945,9.80600643157959,-3.1408536434173584,-6.808532238006592,4.481956481933594
0,1924947,-9.665160179138184,13.880213737487793,5.84084939956665,-20.174434661865234
0,1924949,-31.337167739868164,-4.1362810134887695,4.719181537628174,6.516498565673828
0,1924951,5.038146018981934,-17.43016242980957,9.644943237304688,41.953250885009766
0,1924953,31.801904678344727,9.050004959106445,-10.743681907653809,0.28765660524368286
0,1924955,8.476028442382812,2.2626190185546875,-9.688366889953613,-29.804222106933594
0,1924957,2.0740063190460205,-9.15835189819336,-2.6698484420776367,31.447656631469727
0,1924959,-0.04834876209497452,12.62341594696045,0.8465732932090759,-13.228348731994629
0,1924961,-11.434328079223633,-10.108678817749023,22.431045532226562,-43.88572692871094
0,1924964,0.9363072514533997,8.309627532958984,4.842395782470703,1.9222826957702637
0,1924965,-2.8796093463897705,24.51009178161621,-10.085436820983887,20.639432907104492
0,1924966,-9.02107048034668,-1.9027615785598755,10.830938339233398,15.627612113952637
0,1924969,15.30627727508545,-24.92862319946289,-1.1009773015975952,-6.173649311065674
0,1924970,13.750740051269531,-16.682275772094727,-32.00044631958008,30.856645584106445
0,1924973,-16.95094108581543,31.424724578857422,-1.4048798084259033,-25.035036087036133
0,1924974,-9.823495864868164,20.26005744934082,33.561981201171875,-68.6573257446289
0,1924977,0.8656859993934631,-22.87355613708496,-6.21592903137207,38.2177619934082
0,1924978,-4.637617588043213,-31.734514236450195,-20.29205322265625,35.10944747924805
0,1924981,6.744480609893799,8.66391658782959,9.039383888244629,-20.566314697265625
0,1924982,-5.006922721862793,8.722785949707031,-8.37039852142334,4.799377918243408
0,1924985,-17.3126220703125,-14.77570915222168,4.494531154632568,15.388457298278809
0,1924986,13.973562240600586,17.362714767456055,22.021982192993164,-2.672732353210449
0,1924989,9.61851978302002,4.243418216705322,-25.752458572387695,-33.190711975097656
0,1924990,-5.550278663635254,-3.9414641857147217,-14.420331001281738,6.478019714355469
1,1926229,20.428035736083984,23.41570472717285,40.192230224609375,22.419614791870117
1,1926231,-5.111954689025879,-1.3678959608078003,1.8596827983856201,-33.77987289428711
1,1926233,-24.75794792175293,-16.24941635131836,-23.66701889038086,21.48171615600586
1,1926235,35.682098388671875,2.802699089050293,-5.322576522827148,27.696455001831055
1,1926237,12.619948387145996,-20.086946487426758,-9.74023723602295,-11.406198501586914
1,1926239,-20.439207077026367,1.8272075653076172,13.490826606750488,-10.545512199401855
1,1926241,-2.929537057876587,24.437114715576172,17.52212905883789,-17.08949851989746
1,1926248,-27.739055633544922,-8.907793998718262,-9.176894187927246,36.24664306640625
1,1926249,9.054937362670898,4.46126651763916,-22.04480743408203,10.097366333007812
1,1926249,24.61147689819336,8.831103324890137,6.142004013061523,-41.104129791259766
1,1926249,-5.725811004638672,-14.285652160644531,15.344684600830078,-10.35181999206543
1,1926250,0.5805128812789917,-5.200549602508545,-11.628625869750977,22.80717658996582
1,1926253,-20.86777687072754,2.0331742763519287,-1.3707904815673828,14.724292755126953
1,1926254,-12.358539581298828,4.566586971282959,16.337963104248047,-12.458590507507324
1,1926257,21.220687866210938,1.6884191036224365,-2.7643091678619385,1.4422019720077515
1,1926258,1.8987562656402588,2.761962413787842,-21.637313842773438,15.138020515441895
1,1926261,18.67506980895996,15.763519287109375,23.37371826171875,-25.793781280517578
1,1926262,10.94250774383545,-20.427078247070312,26.81862449645996,-38.396385192871094
1,1926265,-31.63115692138672,-12.694518089294434,-19.346147537231445,38.50360107421875
1,1926266,-10.653308868408203,19.371103286743164,-2.668898105621338,13.087921142578125
1,1926269,11.119047164916992,-7.8715291023254395,14.401751518249512,-19.73994255065918
1,1926270,7.621128082275391,-14.383428573608398,-5.901431560516357,25.74728012084961
1,1926292,1.4989153146743774,10.759201049804688,-21.66765785217285,-13.186999320983887
1,1926292,-7.1293792724609375,11.353880882263184,-0.2695308327674866,-8.587282180786133
1,1926292,-6.165322780609131,-21.378835678100586,2.4337520599365234,27.904281616210938
1,1926293,2.4082441329956055,-11.073310852050781,-8.360931396484375,2.13390851020813
1,1926293,-11.831087112426758,25.4957218170166,8.166197776794434,-10.257476806640625
1,1926293,3.8725357055664062,7.4651384353637695,-9.632390022277832,-10.985283851623535
1,1926293,24.248828887939453,-21.47936248779297,-20.99140739440918,-9.507445335388184
1,1926293,-4.55098295211792,8.769567489624023,14.875258445739746,22.619537353515625
1,1926293,-13.509596824645996,18.528135299682617,20.564456939697266,0.050586652010679245
1,1926294,4.609941005706787,-9.429034233093262,0.276625394821167,-25.06126594543457
1,1926295,5.488668918609619,-20.383878707885742,-7.218649387359619,-10.85892105102539
1,1926295,-3.710171699523926,-12.800084114074707,-12.814250946044922,-13.33785343170166
1,1926296,6.255651473999023,41.112247467041016,24.299848556518555,18.422935485839844
1,1926299,7.746600151062012,37.5071907043457,25.593740463256836,4.653988361358643
1,1926300,-9.1972017288208,-34.66400146484375,-20.738882064819336,-1.6008987426757812
1,1926303,-6.471706867218018,-17.284908294677734,-24.59371566772461,24.492965698242188
1,1926304,7.99331521987915,13.081770896911621,-1.786028265953064,-20.81700897216797
1,1926307,4.287125587463379,-16.374921798706055,30.675148010253906,15.899413108825684
1,1926308,-4.809051513671875,-4.532018184661865,18.783063888549805,36.04935073852539
1,1926311,-14.449097633361816,3.622138261795044,-35.35512161254883,-55.76251983642578
1,1926312,-9.375761032104492,-2.4006662368774414,-21.123640060424805,-6.813539981842041
1,1926315,23.28978157043457,8.960026741027832,24.079116821289062,30.638765335083008
1,1926317,8.222697257995605,-2.722140073776245,-4.943726062774658,-10.291304588317871
1,1926319,-24.782726287841797,2.193314790725708,5.142093181610107,52.65169143676758
1,1926354,-2.9612772464752197,1.1556137800216675,13.43954086303711,-17.905717849731445
1,1926354,15.589468955993652,-22.107892990112305,-25.818004608154297,-83.27323150634766
1,1926354,15.203056335449219,11.990097999572754,3.393441915512085,43.12569046020508
1,1926354,0.925028383731842,20.74138641357422,4.263442516326904,33.373714447021484
1,1926355,-15.281014442443848,-14.087968826293945,-29.529199600219727,-27.53087615966797
1,1926355,-15.923656463623047,-13.245046615600586,7.2394890785217285,3.410675048828125
1,1926355,-10.131482124328613,12.238431930541992,43.21399688720703,2.4230191707611084
1,1926355,10.986172676086426,13.090055465698242,11.529996871948242,-3.864387035369873
1,1926355,18.646120071411133,-16.807445526123047,-20.12932586669922,9.56761646270752
1,1926356,20.253442764282227,8.703413009643555,3.1517279148101807,-16.728050231933594
1,1926356,-2.718587636947632,12.6077241897583,-1.2736873626708984,-28.081403732299805
1,1926356,-33.65922164916992,-20.722885131835938,-30.443721771240234,2.6989686489105225
1,1926356,-2.1006999015808105,-1.2897193431854248,7.03593635559082,11.621223449707031
1,1926356,24.823768615722656,15.113356590270996,30.94255828857422,6.033655166625977
1,1926356,4.094738006591797,14.589252471923828,-16.63300323486328,-28.520002365112305
1,1926357,-16.586570739746094,-5.601705074310303,-15.744965553283691,-10.250273704528809
1,1926357,-8.17979621887207,-9.95731258392334,21.044296264648438,37.87078857421875
1,1926358,-4.309418678283691,-9.037819862365723,-26.304195404052734,23.626726150512695
1,1926358,11.485899925231934,-10.966024398803711,-7.8792948722839355,66.69322204589844
1,1926360,20.507911682128906,29.499845504760742,49.12873077392578,-3.305190086364746
1,1926361,-12.978455543518066,-11.303017616271973,-11.751246452331543,-102.91950225830078
1,1926362,-10.953601837158203,-23.493478775024414,-33.07098388671875,18.399234771728516
1,1926365,-2.721203327178955,18.722084045410156,23.335859298706055,34.72525405883789
1,1926366,-0.2690562307834625,0.7669990658760071,19.490520477294922,-26.147830963134766
1,1926369,-5.830134868621826,1.9124398231506348,-9.462061882019043,15.700457572937012
1,1926370,-11.277851104736328,-11.130719184875488,4.031282901763916,5.172957420349121
1,1926373,29.26576805114746,-19.240625381469727,-16.24273681640625,-1.2324562072753906
1,1926374,14.350922584533691,3.3511853218078613,-18.473724365234375,-20.271812438964844
1,1926377,-11.33296012878418,22.72085189819336,7.527038097381592,-57.69202423095703
1,1926378,8.950397491455078,22.43519401550293,-7.607097148895264,26.842283248901367
1,1926381,-6.363465785980225,2.9560492038726807,8.154768943786621,40.27390670776367
1,1926382,-19.322938919067383,-24.178482055664062,33.465728759765625,-3.0507893562316895
1,1926430,-3.583019495010376,-14.222556114196777,-8.070416450500488,21.454830169677734
1,1926430,18.2613468170166,23.76439094543457,-33.18873977661133,-7.208050727844238
1,1926430,7.383368015289307,-0.9042806625366211,20.103878021240234,-0.7633139491081238
1,1926431,-12.205253601074219,-8.189154624938965,21.522533416748047,20.08291244506836
1,1926431,1.2648909091949463,4.613865852355957,-24.98919105529785,-33.672752380371094
1,1926431,0.42864811420440674,-10.728347778320312,-2.596137285232544,-29.7265567779541
1,1926431,-8.404353141784668,-4.477527141571045,16.919979095458984,26.62347412109375
1,1926431,-0.9960169196128845,2.5793583393096924,-6.372476577758789,5.314685821533203
1,1926432,7.8056535720825195,8.300187110900879,-24.466899871826172,-31.870718002319336
1,1926432,0.11894617229700089,-11.611089706420898,-12.54232406616211,2.0763628482818604
1,1926432,-6.144951820373535,-12.11733627319336,16.80714225769043,20.07681655883789
1,1926432,4.38855504989624,13.755658149719238,17.78440284729004,0.18151411414146423
1,1926432,3.395542621612549,3.4960134029388428,-3.664994955062866,-1.906316876411438
1,1926432,-11.877701759338379,0.7426124215126038,-3.280639410018921,8.52099895477295
1,1926433,-11.206962585449219,6.216861724853516,14.194310188293457,11.818657875061035
1,1926433,13.855315208435059,11.384078025817871,4.71845006942749,-12.933714866638184
1,1926433,24.902637481689453,8.079438209533691,-15.800324440002441,-25.403406143188477
1,1926433,-1.0311596393585205,-13.277649879455566,-2.896998882293701,17.285022735595703
1,1926433,-20.9056396484375,-12.375551223754883,4.689939022064209,15.989850044250488
1,1926433,-7.251072883605957,-2.500153064727783,-3.3903045654296875,-12.46044635772705
1,1926434,15.586432456970215,9.870024681091309,4.583096027374268,5.640222072601318
1,1926434,8.014023780822754,13.185340881347656,-9.494410514831543,8.298930168151855
1,1926434,-17.013158798217773,-12.642096519470215,-7.518916130065918,-0.23214250802993774
1,1926434,-5.2684478759765625,-15.764519691467285,27.593854904174805,-1.9008357524871826
1,1926435,20.099735260009766,9.121770858764648,-5.897202491760254,-13.693931579589844
1,1926436,-15.448043823242188,18.617311477661133,-22.59353256225586,-3.9151721000671387
1,1926437,-10.574982643127441,0.13226252794265747,21.21647071838379,13.61008358001709
1,1926438,43.06905746459961,-3.8694348335266113,15.07600212097168,15.91135311126709
1,1926441,-6.783383846282959,-9.231365203857422,-7.2561187744140625,-8.560275077819824
1,1926442,-27.41518211364746,-26.509624481201172,-29.60358428955078,-33.96144104003906
1,1926445,14.574182510375977,8.736669540405273,-7.013011932373047,4.694263458251953
1,1926446,2.0796618461608887,36.17764663696289,40.79606246948242,12.278865814208984
1,1926449,-12.129560470581055,3.1709675788879395,5.071787357330322,6.537273406982422
1,1926450,5.10921049118042,-16.772687911987305,-26.847835540771484,17.03095054626465
1,1926453,6.749773979187012,-13.75089168548584,10.213027954101562,-19.563457489013672
1,1926454,-22.13860511779785,-11.612831115722656,9.099367141723633,-7.216638088226318
1,1926457,-2.929230213165283,18.93016242980957,-23.5285701751709,15.307948112487793
1,1926458,35.48114013671875,13.459003448486328,-12.426614761352539,-30.928447723388672
1,1926461,-10.8065767288208,-15.414111137390137,21.08053207397461,-1.9799094200134277
1,1926462,-31.74486541748047,10.850008010864258,23.806163787841797,45.39994812011719
1,1926465,22.87807846069336,-6.062322616577148,-10.730132102966309,1.4603604078292847
1,1926526,27.86924171447754,-12.934940338134766,-23.84502410888672,-13.662954330444336
1,1926526,-12.331738471984863,9.604138374328613,0.8610929250717163,7.86776876449585
1,1926526,-23.410903930664062,-5.9602227210998535,14.896585464477539,6.7608537673950195
1,1926526,1.640312910079956,-7.123607635498047,-16.90308380126953,-14.743754386901855
1,1926527,-0.9945504665374756,-9.21126937866211,-6.963534832000732,1.4259446859359741
1,1926527,-4.671029567718506,17.73331642150879,16.743370056152344,24.234060287475586
1,1926527,17.030981063842773,30.411367416381836,4.713857173919678,4.948671340942383
1,1926527,-5.264918804168701,-6.221080303192139,6.159084320068359,-12.344855308532715
1,1926527,-7.88051700592041,-22.388227462768555,-17.938453674316406,-31.380104064941406
1,1926527,8.984745979309082,-11.907736778259277,-11.400873184204102,-16.780132293701172
1,1926528,-7.598703384399414,0.19452133774757385,7.806792736053467,9.625261306762695
1,1926528,-9.564911842346191,24.127321243286133,3.9122040271759033,-10.247156143188477
1,1926528,20.143177032470703,19.9742488861084,24.455732345581055,-7.083902359008789
1,1926528,14.763785362243652,-22.308040618896484,-0.4909636378288269,4.597540378570557
1,1926528,-35.0734748840332,-14.681918144226074,-20.49917221069336,-4.768671035766602
1,1926528,1.7800414562225342,9.117923736572266,15.355306625366211,0.9641035795211792
1,1926529,35.509090423583984,10.62889289855957,-5.620750427246094,2.2418320178985596
1,1926529,-13.49571418762207,-3.221771478652954,-13.466362953186035,15.818830490112305
1,1926529,-27.21021270751953,-20.40399169921875,17.92379379272461,22.009769439697266
1,1926529,-3.5520119667053223,-10.348100662231445,-6.779701232910156,-11.293042182922363
1,1926529,19.787450790405273,19.674909591674805,-4.858445167541504,-16.259180068969727
1,1926530,8.49504280090332,12.26513385772705,19.91314697265625,28.172935485839844
1,1926530,5.665849685668945,4.790742874145508,2.3179805278778076,13.715004920959473
1,1926530,22.95055389404297,4.1664719581604,-24.43401336669922,-44.504005432128906
1,1926530,-17.60741424560547,-26.832063674926758,-12.417777061462402,-15.128744125366211
1,1926530,-25.454374313354492,-2.0118727684020996,16.34202003479004,21.22693634033203
1,1926530,11.720179557800293,11.868255615234375,12.893589973449707,25.305727005004883
1,1926531,7.906980037689209,-5.640707015991211,-7.815307140350342,7.752342224121094
1,1926531,1.1238865852355957,1.2229176759719849,-12.363005638122559,-32.030433654785156
1,1926531,-4.350849628448486,-6.853219032287598,0.8713392615318298,2.2002005577087402
1,1926532,-12.19326114654541,3.322573184967041,-8.183354377746582,15.190034866333008
1,1926532,4.345301151275635,0.4401896893978119,-7.537193298339844,-4.576982021331787
1,1926533,-2.5027170181274414,-27.340158462524414,13.614123344421387,19.10782241821289
1,1926533,-17.786100387573242,15.19268798828125,9.876367568969727,15.005277633666992
1,1926535,3.2021243572235107,21.182430267333984,-5.3901448249816895,-16.44976043701172
1,1926537,21.5269718170166,-7.741714000701904,-9.09481143951416,-13.67564868927002
1,1926539,6.277843952178955,20.39789390563965,14.62026309967041,22.2269229888916
1,1926541,-22.660234451293945,-11.272555351257324,21.097631454467773,3.5035126209259033
1,1926544,8.603269577026367,-13.987114906311035,-18.101577758789062,-49.371986389160156
1,1926545,17.61277961730957,14.852916717529297,0.4536350965499878,-9.872014999389648
1,1926546,-24.384737014770508,0.31409627199172974,19.620746612548828,38.50102233886719
1,1926549,-6.679314136505127,13.344398498535156,-22.923002243041992,-1.4385826587677002
1,1926550,30.074417114257812,-9.28647232055664,-12.407449722290039,-20.11020851135254
1,1926553,-0.1921459585428238,-18.248075485229492,16.86448097229004,10.737091064453125
1,1926554,-6.8022284507751465,21.591157913208008,1.703620433807373,15.220962524414062
1,1926557,15.175195693969727,-1.891785979270935,-20.503273010253906,-34.708106994628906
1,1926558,-6.023340225219727,-30.392311096191406,1.7683535814285278,-26.301755905151367
1,1926561,-5.271595001220703,-6.557265281677246,7.636997699737549,45.078155517578125
1,1926562,-6.851162910461426,23.956619262695312,-1.5998528003692627,30.965694427490234
1,1926635,-12.118518829345703,24.47063446044922,24.574113845825195,-28.465238571166992
1,1926635,0.9174359440803528,-16.97167205810547,-10.808123588562012,-31.65704917907715
1,1926635,-0.31012964248657227,-24.62254524230957,-22.337282180786133,6.888458251953125
1,1926635,-6.2609477043151855,11.12255573272705,17.652299880981445,11.550970077514648
1,1926635,18.628299713134766,24.5413818359375,6.235525608062744,-1.5881996154785156
1,1926636,1.8230297565460205,0.6774161458015442,-3.5290732383728027,7.368075370788574
1,1926636,-20.840322494506836,-18.61712646484375,-14.960933685302734,26.33121109008789
1,1926636,2.3069303035736084,0.21492543816566467,-9.198563575744629,12.569208145141602
1,1926636,-14.824006080627441,4.780919551849365,25.12619400024414,-18.412033081054688
1,1926636,6.900975227355957,-6.396574020385742,10.084190368652344,-9.513461112976074
1,1926637,41.50911331176758,0.3779561221599579,-25.97789764404297,-1.314432144165039
1,1926637,2.8273353576660156,-12.133288383483887,-8.167960166931152,2.49723482131958
1,1926637,-11.626326560974121,-7.584876537322998,20.78190803527832,12.194270133972168
1,1926637,-5.457901477813721,25.599702835083008,9.204609870910645,7.067101955413818
1,1926637,-8.12646198272705,9.226724624633789,-4.608773708343506,-18.457008361816406
1,1926637,2.6618573665618896,-26.05205535888672,-10.393609046936035,-21.762950897216797
1,1926638,-10.414359092712402,6.304772853851318,7.194683074951172,-3.8506624698638916
1,1926638,-6.017017841339111,21.34044075012207,9.992544174194336,-0.9059194922447205
1,1926638,15.900510787963867,-19.801565170288086,-14.141584396362305,14.412940979003906
1,1926638,5.440213680267334,-2.0517995357513428,13.728548049926758,9.874382972717285
1,1926638,-11.621723175048828,19.55776596069336,10.039752960205078,-9.786490440368652
1,1926638,5.054684162139893,-0.6563462018966675,-26.16084861755371,-8.718026161193848
1,1926639,22.71475601196289,-8.802790641784668,-16.7904052734375,-0.15387213230133057
1,1926639,-13.558490753173828,-11.099312782287598,1.3599340915679932,17.3604793548584
1,1926639,-17.19437599182129,5.5990681648254395,10.484190940856934,9.47473430633545
1,1926639,14.28140926361084,17.09679412841797,6.160778045654297,-12.591353416442871
1,1926639,1.5261751413345337,-15.918200492858887,1.030037522315979,-0.911993682384491
1,1926640,-0.7764578461647034,-12.137667655944824,-4.541255474090576,8.583439826965332
1,1926640,6.615591526031494,25.542924880981445,-0.2771988809108734,-0.451917439699173
1,1926640,-10.276618957519531,-2.107290744781494,-1.4845924377441406,3.8898978233337402
1,1926640,2.199469804763794,-18.68358039855957,-1.012420892715454,-7.554656028747559
1,1926640,11.206788063049316,17.657737731933594,0.6268913745880127,11.155509948730469
1,1926640,-10.764286994934082,10.7554931640625,0.05769263580441475,9.792625427246094
1,1926641,2.4923031330108643,-11.51797103881836,26.245702743530273,-24.9749698638916
1,1926641,10.35263442993164,-10.173041343688965,-6.972613334655762,12.599363327026367
1,1926641,-9.006292343139648,-20.41524887084961,-40.57496643066406,-3.5330731868743896
1,1926642,2.9700942039489746,-9.173431396484375,20.247356414794922,-42.14201354980469
1,1926642,12.188504219055176,15.350549697875977,17.19161605834961,14.467370986938477
1,1926642,-12.963521957397461,18.324310302734375,-7.578365325927734,25.51246452331543
1,1926643,-12.20995807647705,5.463833808898926,12.432772636413574,-13.901904106140137
1,1926645,-27.508390426635742,-4.714897632598877,-17.162134170532227,0.48830756545066833
1,1926647,-25.435338973999023,-12.49045467376709,-1.2930718660354614,14.436088562011719
1,1926649,48.64820861816406,-2.9729275703430176,22.07166862487793,32.82634735107422
1,1926651,14.69070053100586,15.000127792358398,-17.15730857849121,-7.784346580505371
1,1926653,-33.729713439941406,-8.477851867675781,-23.171098709106445,-54.33716583251953
1,1926655,11.379183769226074,-1.3254989385604858,-2.008524179458618,19.21822166442871
1,1926657,2.384152412414551,11.416646003723145,1.9379616975784302,4.37824821472168
1,1926659,11.161346435546875,1.6349350214004517,21.234773635864258,-46.125732421875
1,1926661,30.410362243652344,1.899721622467041,14.692964553833008,26.548200607299805
1,1926663,-4.192094802856445,-18.720380783081055,-12.731657028198242,58.65700149536133
1,1926665,-22.96517562866211,-7.374569416046143,-4.614591121673584,-34.88441848754883
1,1926667,-3.696577310562134,18.493942260742188,-9.189428329467773,-43.34955978393555
1,1926669,10.38322639465332,28.840024948120117,10.888296127319336,46.351417541503906
1,1926671,-17.767480850219727,-5.281285762786865,16.39048194885254,8.370688438415527
1,1926673,-3.249232053756714,-30.905954360961914,-7.22453498840332,-34.76538848876953
1,1926675,11.359793663024902,8.216615676879883,12.124493598937988,6.031871318817139
1,1926759,-22.471914291381836,-3.536686420440674,-17.497962951660156,47.259952545166016
1,1926759,-5.7805070877075195,1.4927552938461304,-32.44933319091797,18.522014617919922
1,1926759,23.626176834106445,-6.269583702087402,-3.4890575408935547,-35.941566467285156
1,1926759,-0.5989442467689514,-14.815071105957031,-1.2547187805175781,-15.953309059143066
1,1926759,1.9028412103652954,47.546783447265625,26.98409652709961,-7.556288242340088
1,1926760,20.96784019470215,-13.648252487182617,8.71269416809082,-16.263927459716797
1,1926760,-13.815858840942383,-49.789649963378906,-7.602175712585449,-3.2719945907592773
1,1926760,-13.833990097045898,31.12993812561035,9.921136856079102,7.486935138702393
1,1926760,17.233484268188477,23.71482276916504,-0.07479136437177658,15.399611473083496
1,1926760,-7.732481479644775,-2.3504109382629395,11.192496299743652,-6.03650426864624
1,1926760,-6.994937896728516,2.3432507514953613,5.830207824707031,-5.273595333099365
1,1926761,17.705528259277344,-13.257180213928223,-29.56538200378418,11.392013549804688
1,1926761,-4.904454231262207,-4.8844895362854,-1.43865966796875,-0.705361008644104
1,1926761,1.9594271183013916,18.494632720947266,46.90104293823242,6.229979515075684
1,1926761,6.978155136108398,1.2455087900161743,0.5182790160179138,-12.032012939453125
1,1926761,1.4195927381515503,-26.537416458129883,-37.86879348754883,-17.523290634155273
1,1926761,24.9965877532959,-16.07986068725586,-14.350541114807129,21.79621124267578
1,1926762,0.9079285860061646,15.808258056640625,6.627503395080566,7.386804580688477
1,1926762,-19.29173469543457,15.201994895935059,27.933866500854492,-2.783079147338867
1,1926762,-25.797861099243164,-13.627557754516602,-1.039365530014038,4.237184047698975
1,1926762,3.934065341949463,-11.636260986328125,-17.34931755065918,-2.7160043716430664
1,1926762,58.80966567993164,22.31000518798828,15.840272903442383,-0.8740747570991516
1,1926763,-9.908361434936523,-2.193378210067749,-20.008499145507812,-13.844813346862793
1,1926763,-48.40913772583008,-26.419448852539062,-22.744173049926758,15.119813919067383
1,1926763,6.100350379943848,24.224998474121094,40.65471267700195,7.023293495178223
1,1926763,-0.5259663462638855,13.982179641723633,9.517168998718262,-27.405574798583984
1,1926763,-10.516927719116211,-8.658947944641113,-39.072383880615234,6.594305992126465
1,1926763,15.125150680541992,11.382965087890625,11.045265197753906,22.519546508789062
1,1926764,8.38917350769043,-21.196107864379883,23.217069625854492,11.187522888183594
1,1926764,-8.702906608581543,-11.013993263244629,-16.59317398071289,-9.885608673095703
1,1926764,-4.173420429229736,30.610679626464844,-9.714975357055664,-12.430041313171387
1,1926764,-12.649407386779785,-2.8286831378936768,8.722986221313477,-6.434960842132568
1,1926764,-23.04913330078125,-17.502376556396484,0.8634792566299438,12.514616012573242
1,1926764,-2.7378792762756348,-7.132956027984619,-3.864989995956421,21.46307945251465
1,1926765,13.861742973327637,22.87744140625,24.862892150878906,-30.521230697631836
1,1926765,22.039369583129883,20.276329040527344,-2.728875160217285,-8.195253372192383
1,1926765,-1.8718385696411133,-28.212718963623047,-51.778602600097656,31.684967041015625
1,1926765,-35.414512634277344,-13.77865219116211,0.8107447624206543,-6.858728885650635
1,1926765,-9.471477508544922,-2.0755293369293213,52.046817779541016,-6.872631549835205
1,1926765,18.97951889038086,13.040865898132324,-3.5178375244140625,-6.760980129241943
1,1926766,4.450875282287598,8.630027770996094,-37.210289001464844,-14.825098991394043
1,1926766,-30.302108764648438,-26.5738468170166,22.170120239257812,12.64888858795166
1,1926767,-2.5526506900787354,-0.5080884695053101,29.515735626220703,-21.111949920654297
1,1926767,35.453033447265625,15.373002052307129,-20.29833984375,-5.482860088348389
1,1926767,-14.32540225982666,4.969750881195068,-17.671180725097656,42.79115676879883
1,1926768,-11.11782169342041,-9.155982971191406,11.28161907196045,-8.536155700683594
1,1926769,49.87864685058594,-13.365304946899414,3.182403564453125,-24.920581817626953
1,1926770,3.624887704849243,15.871811866760254,-20.12045669555664,-6.241689205169678
1,1926773,-14.223455429077148,23.55303192138672,-18.669097900390625,51.20024490356445
1,1926774,14.966155052185059,-30.708158493041992,-19.276386260986328,51.97754669189453
1,1926777,-18.0399169921875,-11.86758804321289,17.548744201660156,-59.5284309387207
1,1926778,4.9625983238220215,45.63966751098633,45.49871063232422,-44.34006881713867
1,1926781,17.699684143066406,-15.879942893981934,0.34664514660835266,39.678104400634766
1,1926782,0.4341922700405121,0.028152797371149063,-11.9293212890625,8.657571792602539
1,1926785,11.01770305633545,37.733131408691406,-0.8153888583183289,-33.50553894042969
1,1926786,-21.90790557861328,-5.518134593963623,8.268123626708984,-2.361457347869873
1,1926789,-7.560309410095215,-19.793128967285156,1.4003682136535645,0.269237220287323
1,1926790,32.94439697265625,-24.684091567993164,-12.74074649810791,-11.508145332336426
1,1926878,-7.082475662231445,3.3533122539520264,0.3275544047355652,35.166542053222656
1,1926878,-23.206560134887695,4.133331298828125,-3.9691011905670166,25.31940269470215
1,1926878,0.8729986548423767,-2.4808926582336426,-6.186334133148193,-41.28355026245117
1,1926879,-1.4713762998580933,2.631178617477417,-4.324106216430664,-25.04079246520996
1,1926879,4.574078559875488,-19.405115127563477,-9.994114875793457,34.501075744628906
1,1926879,5.1298322677612305,-7.6178717613220215,-0.15885725617408752,5.091404914855957
1,1926879,-18.171934127807617,10.872098922729492,11.274974822998047,-6.516197204589844
1,1926879,-7.062281608581543,5.814780235290527,21.990148544311523,7.884143352508545
1,1926879,14.138450622558594,-0.4141525626182556,16.008808135986328,-35.7601318359375
1,1926880,-6.874080657958984,4.114535808563232,-10.892804145812988,-23.626733779907227
1,1926880,-6.105230808258057,-2.3086659908294678,-12.89638614654541,12.54547119140625
1,1926880,17.420442581176758,0.7003939747810364,13.302149772644043,13.056196212768555
1,1926880,-9.720030784606934,23.325374603271484,15.893651962280273,6.926769733428955
1,1926880,-8.309795379638672,14.492416381835938,-4.595296859741211,-6.544454574584961
1,1926880,8.244355201721191,-9.701236724853516,-9.102422714233398,-0.1317952573299408
1,1926881,5.878623962402344,-21.183347702026367,-5.211123466491699,46.95829391479492
1,1926881,17.28972816467285,-18.6861515045166,-1.556758165359497,29.461530685424805
1,1926881,-3.099057674407959,1.1704814434051514,-7.020421504974365,-26.97658920288086
1,1926881,-24.378477096557617,8.522308349609375,-13.133999824523926,1.6534146070480347
1,1926881,-5.304656982421875,8.715348243713379,0.4424974024295807,12.332610130310059
1,1926881,9.97472095489502,7.729948997497559,19.64950180053711,-12.640571594238281
1,1926882,3.6185719966888428,-8.843661308288574,5.554940700531006,7.858086585998535
1,1926882,-5.435213088989258,2.4082088470458984,5.198525905609131,7.374746799468994
1,1926882,-1.2212562561035156,18.638521194458008,11.573966979980469,-14.055317878723145
1,1926882,12.318174362182617,-17.215532302856445,-24.796091079711914,-2.8231232166290283
1,1926882,-8.166945457458496,-15.108104705810547,-22.13865852355957,-0.6352875232696533
1,1926883,-9.976846694946289,19.68032455444336,1.5841012001037598,-25.83905029296875
1,1926883,15.537333488464355,0.9278027415275574,-3.3759310245513916,-36.254638671875
1,1926883,10.915961265563965,-10.585441589355469,0.489343523979187,-7.542519569396973
1,1926883,-13.513762474060059,-11.67636489868164,6.9338202476501465,26.87073516845703
1,1926883,-7.136565685272217,11.440784454345703,14.840124130249023,12.819565773010254
1,1926883,24.330533981323242,25.097518920898438,24.51167106628418,-28.234386444091797
1,1926884,5.760958671569824,-9.812417030334473,-10.628925323486328,-18.09685707092285
1,1926884,-17.189701080322266,-16.64278221130371,-23.042705535888672,21.51519775390625
1,1926884,-3.0901947021484375,8.433884620666504,9.307685852050781,9.4696626663208
1,1926884,-0.6188263893127441,7.684529781341553,-17.98939323425293,9.075796127319336
1,1926884,-10.641512870788574,-19.468111038208008,-0.8002707362174988,22.938255310058594
1,1926884,2.2766964435577393,11.554139137268066,43.85981369018555,-11.474678039550781
1,1926885,13.587284088134766,7.441758155822754,-27.645170211791992,-6.363490104675293
1,1926885,-11.271416664123535,-19.039365768432617,-32.162445068359375,12.149200439453125
1,1926885,-4.668590545654297,23.679349899291992,33.097076416015625,-8.681188583374023
1,1926885,12.193246841430664,0.7783880829811096,-10.642946243286133,-9.388050079345703
1,1926885,-10.094515800476074,-40.80605697631836,-18.166996002197266,13.450347900390625
1,1926887,10.671772003173828,-5.010356903076172,4.885560035705566,-9.155181884765625
1,1926887,0.008349793963134289,33.79346466064453,-18.99178695678711,-26.093408584594727
1,1926887,-16.172000885009766,-3.4496660232543945,19.096525192260742,21.74097442626953
1,1926887,37.48345184326172,-22.237337112426758,14.904702186584473,10.804965019226074
1,1926887,-1.0235470533370972,25.0581111907959,-29.50295639038086,-1.0008220672607422
1,1926889,-44.629146575927734,9.591562271118164,17.838075637817383,32.86294937133789
1,1926891,26.831933975219727,-15.581881523132324,58.749794006347656,-0.27045077085494995
1,1926893,17.831771850585938,6.2587056159973145,9.167387962341309,-33.96739196777344
1,1926895,-31.351377487182617,2.684788465499878,-21.217405319213867,38.93000030517578
1,1926897,13.146944046020508,-22.173784255981445,-21.35832405090332,18.941150665283203
1,1926899,-0.6675253510475159,-6.556236267089844,-38.37288284301758,-57.01948165893555
1,1926901,-23.177888870239258,18.78038787841797,-13.240551948547363,-1.559921145439148
1,1926903,25.41078758239746,13.646441459655762,54.46812057495117,46.44826126098633
1,1926905,27.492656707763672,0.23340129852294922,25.021345138549805,15.372929573059082
1,1926907,-22.95502471923828,-8.300515174865723,-21.43052101135254,-62.86757278442383
1,1926909,-41.74970245361328,5.1492085456848145,21.441131591796875,-47.38719940185547
1,1926911,-6.289928436279297,-3.341891050338745,-32.5787467956543,27.734779357910156
1,1926913,25.451705932617188,-16.76114845275879,-36.91035461425781,27.791975021362305
1,1926916,58.58072280883789,20.272180557250977,32.24293899536133,7.72609281539917
1,1926917,17.7845401763916,11.452592849731445,11.405754089355469,-2.6392037868499756
1,1926918,-45.43180465698242,-23.644580841064453,9.643165588378906,-23.174636840820312
1,1926921,-33.65651321411133,1.3709872961044312,1.530683994293213,3.423247814178467
1,1926922,-29.415739059448242,5.87896728515625,-17.439456939697266,13.49449634552002
1,1927021,35.651126861572266,-21.78933334350586,21.523706436157227,0.8544280529022217
1,1927021,42.344085693359375,-12.446951866149902,8.463072776794434,5.794947624206543
1,1927021,-29.065563201904297,23.933290481567383,-52.38336944580078,-17.349220275878906
1,1927021,-12.793145179748535,0.02820971980690956,-23.778650283813477,14.216611862182617
1,1927021,-0.014481649734079838,0.5552095174789429,32.86801528930664,12.245078086853027
1,1927021,-8.722587585449219,16.611318588256836,24.718708038330078,-33.046104431152344
1,1927022,2.8584606647491455,-14.159812927246094,-10.249025344848633,-10.513620376586914
1,1927022,-14.037731170654297,4.5207600593566895,5.797934532165527,19.11821937561035
1,1927022,-9.821945190429688,-4.955635070800781,7.83083438873291,1.49491548538208
1,1927022,22.484153747558594,-4.878319263458252,-26.33626365661621,-9.85713005065918
1,1927022,12.83182430267334,25.122835159301758,3.196901798248291,11.63349437713623
1,1927023,1.543679118156433,-8.495445251464844,4.046119213104248,4.78696870803833
1,1927023,1.5399919748306274,-23.65643310546875,0.053758274763822556,4.063924312591553
1,1927023,-9.968801498413086,15.364582061767578,18.661457061767578,15.442997932434082
1,1927023,-5.040500640869141,26.851255416870117,-6.219384670257568,-16.426233291625977
1,1927023,18.91585350036621,-22.998197555541992,-22.796701431274414,-17.33534049987793
1,1927023,9.086827278137207,-22.113372802734375,-7.6526618003845215,22.758310317993164
1,1927024,-1.8211599588394165,25.695804595947266,29.37251091003418,4.945521831512451
1,1927024,14.629610061645508,8.047908782958984,-6.582399845123291,-13.348027229309082
1,1927024,-1.4506094455718994,-13.881003379821777,-31.106164932250977,12.118156433105469
1,1927024,-20.287599563598633,10.680244445800781,27.125926971435547,4.655145168304443
1,1927024,2.975324869155884,9.841641426086426,16.293718338012695,-23.24649429321289
1,1927024,-1.813495397567749,-26.909832000732422,-19.530536651611328,-3.974503517150879
1,1927025,-12.443592071533203,-6.079578399658203,6.863691329956055,8.38446044921875
1,1927025,22.787443161010742,31.696659088134766,-2.119685173034668,-13.440628051757812
1,1927025,-2.9318838119506836,-5.7904582023620605,-14.216557502746582,16.54366683959961
1,1927025,-46.410499572753906,-30.479501724243164,21.294702529907227,18.32166290283203
1,1927025,14.071477890014648,20.243070602416992,8.241976737976074,-15.054570198059082
1,1927026,39.036346435546875,28.44048309326172,-2.495053291320801,-10.889046669006348
1,1927026,-13.816000938415527,-17.591808319091797,10.422182083129883,0.6060441732406616
1,1927026,-6.942410469055176,-25.349470138549805,-28.407007217407227,18.810449600219727
1,1927026,5.034365177154541,-2.66056752204895,-12.144877433776855,0.3798983097076416
1,1927026,-12.211994171142578,7.113175392150879,25.809894561767578,-24.931177139282227
1,1927026,11.686360359191895,5.706986904144287,-5.945754528045654,-2.512012243270874
1,1927027,10.906871795654297,-4.318225860595703,-19.22932243347168,9.898822784423828
1,1927027,-25.02235221862793,-3.2550902366638184,-8.319436073303223,-13.369770050048828
1,1927027,-5.391271591186523,5.221241474151611,13.105634689331055,-9.15566635131836
1,1927027,14.451264381408691,0.7045832276344299,14.966405868530273,16.749588012695312
1,1927027,6.577480792999268,11.350919723510742,-13.727470397949219,18.23573112487793
1,1927027,-1.9383149147033691,3.575629472732544,-0.0014714174903929234,-2.1755690574645996
1,1927028,-10.929237365722656,-11.078595161437988,28.771310806274414,-17.045988082885742
1,1927028,7.36163854598999,-5.128499507904053,-10.045934677124023,-2.4377424716949463
1,1927028,-3.61688494682312,13.115987777709961,-18.7387752532959,4.235249996185303
1,1927028,-21.205516815185547,-4.654616355895996,17.185928344726562,5.185041427612305
1,1927028,10.007604598999023,-14.284649848937988,-4.358625888824463,2.9390573501586914
1,1927028,0.6835687756538391,15.233656883239746,-17.164892196655273,-0.4883355498313904
1,1927029,-12.691964149475098,-1.7244155406951904,10.185978889465332,-1.3513869047164917
1,1927029,32.58091735839844,-17.77913475036621,-3.5130531787872314,-14.812007904052734
1,1927029,13.420708656311035,6.8704729080200195,-4.052167892456055,-4.346081733703613
1,1927030,-24.674123764038086,15.424948692321777,4.886714935302734,-3.815608501434326
1,1927030,13.893150329589844,-5.008368015289307,-26.448673248291016,-2.9202423095703125
1,1927031,11.635360717773438,-9.998250007629395,8.396283149719238,27.73758888244629
1,1927031,-18.55031967163086,9.215578079223633,16.127098083496094,3.4039342403411865
1,1927031,11.526473999023438,-1.6165492534637451,-16.98077964782715,-22.82508087158203
1,1927032,26.065853118896484,-7.976860523223877,-5.019520282745361,40.22066879272461
1,1927035,4.814642906188965,-0.09248001873493195,7.458742618560791,73.03302764892578
1,1927036,-20.07042121887207,-0.7898844480514526,20.034523010253906,-21.060216903686523
1,1927039,-8.452547073364258,17.59579849243164,25.99525260925293,-69.98026275634766
1,1927040,1.7032619714736938,-11.01555347442627,24.51275634765625,9.657608985900879
1,1927043,-61.4372673034668,-11.670604705810547,-4.444086074829102,-0.18998098373413086
1,1927044,-28.16111946105957,19.341093063354492,-16.28998374938965,-39.8072509765625
1,1927047,63.3084602355957,-10.591156005859375,-1.0986003875732422,17.308515548706055
1,1927048,27.751737594604492,-7.515302658081055,-22.434795379638672,22.170303344726562
1,1927051,-28.632266998291016,16.56368064880371,-26.922758102416992,-1.4827940464019775
1,1927052,-3.7807247638702393,-5.8891921043396,11.416378021240234,-14.35024642944336
1,1927055,32.90372085571289,15.324603080749512,41.51066589355469,-37.227294921875
1,1927056,-17.40150260925293,24.16278076171875,7.142800807952881,15.399778366088867
1,1927059,-21.05265998840332,-42.398658752441406,-60.665077209472656,44.2779655456543
1,1927061,31.39740562438965,-35.169403076171875,-21.140539169311523,5.934276580810547
1,1927063,-7.271032333374023,20.580671310424805,32.44565200805664,-17.30472755432129
1,1927065,-7.654643535614014,17.734683990478516,9.798524856567383,-13.042732238769531
1,1927067,11.879051208496094,3.4782164096832275,13.871113777160645,-19.165403366088867
